#  Theta paroi en °  Angle Choc en °     Mach amont
     0.00000000        9.59406823        6.00000000
     1.00413915        9.59648040        6.00000000
     1.21709694        9.59985547        6.00000000
     1.44393833        9.60611919        6.00000000
     1.68866431        9.61719734        6.00000000
     1.94328047        9.63501569        6.00000000
     2.20356204        9.66150002        6.00000000
     2.46863549        9.69857608        6.00000000
     2.73934125        9.74816967        6.00000000
     3.01728521        9.81220654        6.00000000
     3.30438865        9.89261247        6.00000000
     3.55068697        9.97301841        6.00000000
     3.77051627       10.05342434        6.00000000
     3.97161057       10.13383027        6.00000000
     4.15865709       10.21423620        6.00000000
     4.33472873       10.29464213        6.00000000
     4.50195794       10.37504806        6.00000000
     4.66188980       10.45545400        6.00000000
     4.81568236       10.53585993        6.00000000
     4.96422787       10.61626586        6.00000000
     5.10822945       10.69667179        6.00000000
     5.24825171       10.77707772        6.00000000
     5.38475561       10.85748365        6.00000000
     5.51812265       10.93788959        6.00000000
     5.64867248       11.01829552        6.00000000
     5.77667580       11.09870145        6.00000000
     5.90236409       11.17910738        6.00000000
     6.02593688       11.25951331        6.00000000
     6.14756756       11.33991925        6.00000000
     6.26740783       11.42032518        6.00000000
     6.38559123       11.50073111        6.00000000
     6.50223599       11.58113704        6.00000000
     6.61744734       11.66154297        6.00000000
     6.73131941       11.74194890        6.00000000
     6.84393671       11.82235484        6.00000000
     6.95537551       11.90276077        6.00000000
     7.06570487       11.98316670        6.00000000
     7.17498751       12.06357263        6.00000000
     7.28328065       12.14397856        6.00000000
     7.39063661       12.22438449        6.00000000
     7.49710336       12.30479043        6.00000000
     7.60272504       12.38519636        6.00000000
     7.70754233       12.46560229        6.00000000
     7.81159288       12.54600822        6.00000000
     7.91491151       12.62641415        6.00000000
     8.01753057       12.70682009        6.00000000
     8.11948017       12.78722602        6.00000000
     8.22078838       12.86763195        6.00000000
     8.32148140       12.94803788        6.00000000
     8.42158372       13.02844381        6.00000000
     8.52111836       13.10884974        6.00000000
     8.62010685       13.18925568        6.00000000
     8.71856948       13.26966161        6.00000000
     8.81652532       13.35006754        6.00000000
     8.91399236       13.43047347        6.00000000
     9.01098757       13.51087940        6.00000000
     9.10752702       13.59128534        6.00000000
     9.20362588       13.67169127        6.00000000
     9.29929854       13.75209720        6.00000000
     9.39455864       13.83250313        6.00000000
     9.48941916       13.91290906        6.00000000
     9.58389238       13.99331499        6.00000000
     9.67799002       14.07372093        6.00000000
     9.77172325       14.15412686        6.00000000
     9.86510269       14.23453279        6.00000000
     9.95813849       14.31493872        6.00000000
    10.05084033       14.39534465        6.00000000
    10.14321747       14.47575058        6.00000000
    10.23527874       14.55615652        6.00000000
    10.32703264       14.63656245        6.00000000
    10.41848726       14.71696838        6.00000000
    10.50965038       14.79737431        6.00000000
    10.60052945       14.87778024        6.00000000
    10.69113164       14.95818618        6.00000000
    10.78146382       15.03859211        6.00000000
    10.87153259       15.11899804        6.00000000
    10.96134429       15.19940397        6.00000000
    11.05090505       15.27980990        6.00000000
    11.14022073       15.36021583        6.00000000
    11.22929701       15.44062177        6.00000000
    11.31813934       15.52102770        6.00000000
    11.40675298       15.60143363        6.00000000
    11.49514301       15.68183956        6.00000000
    11.58331432       15.76224549        6.00000000
    11.67127166       15.84265142        6.00000000
    11.75901957       15.92305736        6.00000000
    11.84656249       16.00346329        6.00000000
    11.93390467       16.08386922        6.00000000
    12.02105026       16.16427515        6.00000000
    12.10800324       16.24468108        6.00000000
    12.19476748       16.32508702        6.00000000
    12.28134672       16.40549295        6.00000000
    12.36774460       16.48589888        6.00000000
    12.45396462       16.56630481        6.00000000
    12.54001020       16.64671074        6.00000000
    12.62588463       16.72711667        6.00000000
    12.71159113       16.80752261        6.00000000
    12.79713281       16.88792854        6.00000000
    12.88251268       16.96833447        6.00000000
    12.96773368       17.04874040        6.00000000
    13.05279866       17.12914633        6.00000000
    13.13771038       17.20955226        6.00000000
    13.22247153       17.28995820        6.00000000
    13.30708472       17.37036413        6.00000000
    13.39155250       17.45077006        6.00000000
    13.47587733       17.53117599        6.00000000
    13.56006163       17.61158192        6.00000000
    13.64410773       17.69198786        6.00000000
    13.72801792       17.77239379        6.00000000
    13.81179440       17.85279972        6.00000000
    13.89543935       17.93320565        6.00000000
    13.97895485       18.01361158        6.00000000
    14.06234297       18.09401751        6.00000000
    14.14560570       18.17442345        6.00000000
    14.22874499       18.25482938        6.00000000
    14.31176274       18.33523531        6.00000000
    14.39466078       18.41564124        6.00000000
    14.47744095       18.49604717        6.00000000
    14.56010499       18.57645311        6.00000000
    14.64265461       18.65685904        6.00000000
    14.72509151       18.73726497        6.00000000
    14.80741731       18.81767090        6.00000000
    14.88963361       18.89807683        6.00000000
    14.97174197       18.97848276        6.00000000
    15.05374391       19.05888870        6.00000000
    15.13564094       19.13929463        6.00000000
    15.21743448       19.21970056        6.00000000
    15.29912596       19.30010649        6.00000000
    15.38071679       19.38051242        6.00000000
    15.46220831       19.46091835        6.00000000
    15.54360183       19.54132429        6.00000000
    15.62489867       19.62173022        6.00000000
    15.70610008       19.70213615        6.00000000
    15.78720732       19.78254208        6.00000000
    15.86822159       19.86294801        6.00000000
    15.94914406       19.94335395        6.00000000
    16.02997591       20.02375988        6.00000000
    16.11071828       20.10416581        6.00000000
    16.19137225       20.18457174        6.00000000
    16.27193893       20.26497767        6.00000000
    16.35241939       20.34538360        6.00000000
    16.43281465       20.42578954        6.00000000
    16.51312575       20.50619547        6.00000000
    16.59335367       20.58660140        6.00000000
    16.67349940       20.66700733        6.00000000
    16.75356388       20.74741326        6.00000000
    16.83354807       20.82781919        6.00000000
    16.91345288       20.90822513        6.00000000
    16.99327920       20.98863106        6.00000000
    17.07302791       21.06903699        6.00000000
    17.15269990       21.14944292        6.00000000
    17.23229599       21.22984885        6.00000000
    17.31181701       21.31025479        6.00000000
    17.39126378       21.39066072        6.00000000
    17.47063710       21.47106665        6.00000000
    17.54993775       21.55147258        6.00000000
    17.62916649       21.63187851        6.00000000
    17.70832407       21.71228444        6.00000000
    17.78741123       21.79269038        6.00000000
    17.86642870       21.87309631        6.00000000
    17.94537716       21.95350224        6.00000000
    18.02425734       22.03390817        6.00000000
    18.10306989       22.11431410        6.00000000
    18.18181550       22.19472003        6.00000000
    18.26049481       22.27512597        6.00000000
    18.33910847       22.35553190        6.00000000
    18.41765711       22.43593783        6.00000000
    18.49614134       22.51634376        6.00000000
    18.57456177       22.59674969        6.00000000
    18.65291901       22.67715563        6.00000000
    18.73121363       22.75756156        6.00000000
    18.80944620       22.83796749        6.00000000
    18.88761729       22.91837342        6.00000000
    18.96572745       22.99877935        6.00000000
    19.04377724       23.07918528        6.00000000
    19.12176715       23.15959122        6.00000000
    19.19969774       23.23999715        6.00000000
    19.27756951       23.32040308        6.00000000
    19.35538296       23.40080901        6.00000000
    19.43313859       23.48121494        6.00000000
    19.51083688       23.56162087        6.00000000
    19.58847831       23.64202681        6.00000000
    19.66606334       23.72243274        6.00000000
    19.74359243       23.80283867        6.00000000
    19.82106604       23.88324460        6.00000000
    19.89848461       23.96365053        6.00000000
    19.97584857       24.04405647        6.00000000
    20.05315835       24.12446240        6.00000000
    20.13041437       24.20486833        6.00000000
    20.20761704       24.28527426        6.00000000
    20.28476675       24.36568019        6.00000000
    20.36186392       24.44608612        6.00000000
    20.43890893       24.52649206        6.00000000
    20.51590215       24.60689799        6.00000000
    20.59284399       24.68730392        6.00000000
    20.66973478       24.76770985        6.00000000
    20.74657491       24.84811578        6.00000000
    20.82336472       24.92852172        6.00000000
    20.90010456       25.00892765        6.00000000
    20.97679479       25.08933358        6.00000000
    21.05343573       25.16973951        6.00000000
    21.13002771       25.25014544        6.00000000
    21.20657107       25.33055137        6.00000000
    21.28306613       25.41095731        6.00000000
    21.35951318       25.49136324        6.00000000
    21.43591256       25.57176917        6.00000000
    21.51226454       25.65217510        6.00000000
    21.58856945       25.73258103        6.00000000
    21.66482756       25.81298696        6.00000000
    21.74103916       25.89339290        6.00000000
    21.81720454       25.97379883        6.00000000
    21.89332396       26.05420476        6.00000000
    21.96939771       26.13461069        6.00000000
    22.04542604       26.21501662        6.00000000
    22.12140923       26.29542256        6.00000000
    22.19734752       26.37582849        6.00000000
    22.27324117       26.45623442        6.00000000
    22.34909044       26.53664035        6.00000000
    22.42489555       26.61704628        6.00000000
    22.50065675       26.69745221        6.00000000
    22.57637428       26.77785815        6.00000000
    22.65204835       26.85826408        6.00000000
    22.72767921       26.93867001        6.00000000
    22.80326707       27.01907594        6.00000000
    22.87881216       27.09948187        6.00000000
    22.95431467       27.17988780        6.00000000
    23.02977483       27.26029374        6.00000000
    23.10519283       27.34069967        6.00000000
    23.18056889       27.42110560        6.00000000
    23.25590319       27.50151153        6.00000000
    23.33119593       27.58191746        6.00000000
    23.40644731       27.66232340        6.00000000
    23.48165751       27.74272933        6.00000000
    23.55682672       27.82313526        6.00000000
    23.63195510       27.90354119        6.00000000
    23.70704285       27.98394712        6.00000000
    23.78209013       28.06435305        6.00000000
    23.85709711       28.14475899        6.00000000
    23.93206396       28.22516492        6.00000000
    24.00699084       28.30557085        6.00000000
    24.08187791       28.38597678        6.00000000
    24.15672534       28.46638271        6.00000000
    24.23153326       28.54678864        6.00000000
    24.30630183       28.62719458        6.00000000
    24.38103120       28.70760051        6.00000000
    24.45572152       28.78800644        6.00000000
    24.53037291       28.86841237        6.00000000
    24.60498553       28.94881830        6.00000000
    24.67955951       29.02922424        6.00000000
    24.75409498       29.10963017        6.00000000
    24.82859207       29.19003610        6.00000000
    24.90305090       29.27044203        6.00000000
    24.97747160       29.35084796        6.00000000
    25.05185429       29.43125389        6.00000000
    25.12619910       29.51165983        6.00000000
    25.20050612       29.59206576        6.00000000
    25.27477549       29.67247169        6.00000000
    25.34900731       29.75287762        6.00000000
    25.42320168       29.83328355        6.00000000
    25.49735872       29.91368949        6.00000000
    25.57147852       29.99409542        6.00000000
    25.64556119       30.07450135        6.00000000
    25.71960683       30.15490728        6.00000000
    25.79361553       30.23531321        6.00000000
    25.86758737       30.31571914        6.00000000
    25.94152247       30.39612508        6.00000000
    26.01542090       30.47653101        6.00000000
    26.08928275       30.55693694        6.00000000
    26.16310810       30.63734287        6.00000000
    26.23689703       30.71774880        6.00000000
    26.31064964       30.79815473        6.00000000
    26.38436598       30.87856067        6.00000000
    26.45804614       30.95896660        6.00000000
    26.53169019       31.03937253        6.00000000
    26.60529820       31.11977846        6.00000000
    26.67887024       31.20018439        6.00000000
    26.75240638       31.28059033        6.00000000
    26.82590667       31.36099626        6.00000000
    26.89937119       31.44140219        6.00000000
    26.97279999       31.52180812        6.00000000
    27.04619313       31.60221405        6.00000000
    27.11955068       31.68261998        6.00000000
    27.19287267       31.76302592        6.00000000
    27.26615917       31.84343185        6.00000000
    27.33941022       31.92383778        6.00000000
    27.41262587       32.00424371        6.00000000
    27.48580617       32.08464964        6.00000000
    27.55895117       32.16505557        6.00000000
    27.63206090       32.24546151        6.00000000
    27.70513541       32.32586744        6.00000000
    27.77817474       32.40627337        6.00000000
    27.85117892       32.48667930        6.00000000
    27.92414799       32.56708523        6.00000000
    27.99708198       32.64749117        6.00000000
    28.06998093       32.72789710        6.00000000
    28.14284486       32.80830303        6.00000000
    28.21567381       32.88870896        6.00000000
    28.28846779       32.96911489        6.00000000
    28.36122684       33.04952082        6.00000000
    28.43395097       33.12992676        6.00000000
    28.50664022       33.21033269        6.00000000
    28.57929459       33.29073862        6.00000000
    28.65191411       33.37114455        6.00000000
    28.72449879       33.45155048        6.00000000
    28.79704865       33.53195641        6.00000000
    28.86956370       33.61236235        6.00000000
    28.94204395       33.69276828        6.00000000
    29.01448941       33.77317421        6.00000000
    29.08690009       33.85358014        6.00000000
    29.15927600       33.93398607        6.00000000
    29.23161714       34.01439201        6.00000000
    29.30392351       34.09479794        6.00000000
    29.37619511       34.17520387        6.00000000
    29.44843196       34.25560980        6.00000000
    29.52063404       34.33601573        6.00000000
    29.59280135       34.41642166        6.00000000
    29.66493389       34.49682760        6.00000000
    29.73703165       34.57723353        6.00000000
    29.80909462       34.65763946        6.00000000
    29.88112280       34.73804539        6.00000000
    29.95311618       34.81845132        6.00000000
    30.02507473       34.89885725        6.00000000
    30.09699846       34.97926319        6.00000000
    30.16888734       35.05966912        6.00000000
    30.24074135       35.14007505        6.00000000
    30.31256049       35.22048098        6.00000000
    30.38434473       35.30088691        6.00000000
    30.45609405       35.38129285        6.00000000
    30.52780842       35.46169878        6.00000000
    30.59948783       35.54210471        6.00000000
    30.67113225       35.62251064        6.00000000
    30.74274164       35.70291657        6.00000000
    30.81431599       35.78332250        6.00000000
    30.88585527       35.86372844        6.00000000
    30.95735944       35.94413437        6.00000000
    31.02882847       36.02454030        6.00000000
    31.10026233       36.10494623        6.00000000
    31.17166098       36.18535216        6.00000000
    31.24302438       36.26575810        6.00000000
    31.31435251       36.34616403        6.00000000
    31.38564531       36.42656996        6.00000000
    31.45690275       36.50697589        6.00000000
    31.52812479       36.58738182        6.00000000
    31.59931138       36.66778775        6.00000000
    31.67046247       36.74819369        6.00000000
    31.74157803       36.82859962        6.00000000
    31.81265801       36.90900555        6.00000000
    31.88370234       36.98941148        6.00000000
    31.95471099       37.06981741        6.00000000
    32.02568391       37.15022334        6.00000000
    32.09662103       37.23062928        6.00000000
    32.16752232       37.31103521        6.00000000
    32.23838770       37.39144114        6.00000000
    32.30921712       37.47184707        6.00000000
    32.38001053       37.55225300        6.00000000
    32.45076786       37.63265894        6.00000000
    32.52148906       37.71306487        6.00000000
    32.59217406       37.79347080        6.00000000
    32.66282280       37.87387673        6.00000000
    32.73343520       37.95428266        6.00000000
    32.80401122       38.03468859        6.00000000
    32.87455077       38.11509453        6.00000000
    32.94505379       38.19550046        6.00000000
    33.01552021       38.27590639        6.00000000
    33.08594996       38.35631232        6.00000000
    33.15634295       38.43671825        6.00000000
    33.22669913       38.51712418        6.00000000
    33.29701841       38.59753012        6.00000000
    33.36730072       38.67793605        6.00000000
    33.43754597       38.75834198        6.00000000
    33.50775408       38.83874791        6.00000000
    33.57792499       38.91915384        6.00000000
    33.64805860       38.99955978        6.00000000
    33.71815482       39.07996571        6.00000000
    33.78821358       39.16037164        6.00000000
    33.85823479       39.24077757        6.00000000
    33.92821836       39.32118350        6.00000000
    33.99816420       39.40158943        6.00000000
    34.06807221       39.48199537        6.00000000
    34.13794232       39.56240130        6.00000000
    34.20777441       39.64280723        6.00000000
    34.27756841       39.72321316        6.00000000
    34.34732421       39.80361909        6.00000000
