#  Theta paroi en °  Inverse Mach Paroi  Mach amont
     1.53963134        0.68561860        3.20000000
     1.86039515        0.68492931        3.20000000
     2.20415094        0.68411028        3.20000000
     2.57452941        0.68314451        3.20000000
     2.95728524        0.68206465        3.20000000
     3.34418254        0.68089645        3.20000000
     3.73235811        0.67965362        3.20000000
     4.12174635        0.67834132        3.20000000
     4.51356142        0.67695937        3.20000000
     4.90956242        0.67550422        3.20000000
     5.24228082        0.67423890        3.20000000
     5.53395519        0.67309918        3.20000000
     5.79658612        0.67204955        3.20000000
     6.03744819        0.67106809        3.20000000
     6.26131142        0.67014019        3.20000000
     6.47148651        0.66925559        3.20000000
     6.67037265        0.66840678        3.20000000
     6.85976851        0.66758807        3.20000000
     7.04106008        0.66679503        3.20000000
     7.21533963        0.66602418        3.20000000
     7.38348461        0.66527265        3.20000000
     7.54621122        0.66453814        3.20000000
     7.70411238        0.66381869        3.20000000
     7.85768482        0.66311267        3.20000000
     8.00734922        0.66241870        3.20000000
     8.15346524        0.66173558        3.20000000
     8.29634288        0.66106227        3.20000000
     8.43625145        0.66039789        3.20000000
     8.57342648        0.65974162        3.20000000
     8.70807529        0.65909279        3.20000000
     8.84038129        0.65845076        3.20000000
     8.97050768        0.65781498        3.20000000
     9.09860031        0.65718495        3.20000000
     9.22479015        0.65656023        3.20000000
     9.34919522        0.65594042        3.20000000
     9.47192232        0.65532513        3.20000000
     9.59306842        0.65471405        3.20000000
     9.71272183        0.65410687        3.20000000
     9.83096326        0.65350329        3.20000000
     9.94786665        0.65290308        3.20000000
    10.06349993        0.65230598        3.20000000
    10.17792568        0.65171179        3.20000000
    10.29120170        0.65112029        3.20000000
    10.40338140        0.65053130        3.20000000
    10.51451440        0.64994465        3.20000000
    10.62464674        0.64936016        3.20000000
    10.73382130        0.64877770        3.20000000
    10.84207809        0.64819711        3.20000000
    10.94945444        0.64761826        3.20000000
    11.05598535        0.64704103        3.20000000
    11.16170357        0.64646530        3.20000000
    11.26663986        0.64589096        3.20000000
    11.37082314        0.64531790        3.20000000
    11.47428060        0.64474603        3.20000000
    11.57703792        0.64417525        3.20000000
    11.67911930        0.64360547        3.20000000
    11.78054758        0.64303661        3.20000000
    11.88134442        0.64246859        3.20000000
    11.98153030        0.64190134        3.20000000
    12.08112463        0.64133478        3.20000000
    12.18014584        0.64076884        3.20000000
    12.27861143        0.64020346        3.20000000
    12.37653805        0.63963858        3.20000000
    12.47394154        0.63907414        3.20000000
    12.57083696        0.63851008        3.20000000
    12.66723872        0.63794634        3.20000000
    12.76316052        0.63738288        3.20000000
    12.85861547        0.63681964        3.20000000
    12.95361609        0.63625659        3.20000000
    13.04817435        0.63569366        3.20000000
    13.14230170        0.63513082        3.20000000
    13.23600913        0.63456803        3.20000000
    13.32930713        0.63400524        3.20000000
    13.42220581        0.63344242        3.20000000
    13.51471484        0.63287953        3.20000000
    13.60684350        0.63231652        3.20000000
    13.69860072        0.63175338        3.20000000
    13.78999509        0.63119005        3.20000000
    13.88103485        0.63062652        3.20000000
    13.97172796        0.63006275        3.20000000
    14.06208206        0.62949870        3.20000000
    14.15210451        0.62893435        3.20000000
    14.24180242        0.62836968        3.20000000
    14.33118263        0.62780464        3.20000000
    14.42025177        0.62723922        3.20000000
    14.50901620        0.62667339        3.20000000
    14.59748208        0.62610712        3.20000000
    14.68565538        0.62554040        3.20000000
    14.77354184        0.62497319        3.20000000
    14.86114702        0.62440547        3.20000000
    14.94847630        0.62383722        3.20000000
    15.03553490        0.62326843        3.20000000
    15.12232786        0.62269906        3.20000000
    15.20886005        0.62212909        3.20000000
    15.29513623        0.62155852        3.20000000
    15.38116095        0.62098731        3.20000000
    15.46693868        0.62041544        3.20000000
    15.55247373        0.61984291        3.20000000
    15.63777026        0.61926969        3.20000000
    15.72283237        0.61869576        3.20000000
    15.80766399        0.61812111        3.20000000
    15.89226893        0.61754572        3.20000000
    15.97665093        0.61696957        3.20000000
    16.06081359        0.61639265        3.20000000
    16.14476044        0.61581494        3.20000000
    16.22849489        0.61523642        3.20000000
    16.31202026        0.61465708        3.20000000
    16.39533979        0.61407691        3.20000000
    16.47845661        0.61349590        3.20000000
    16.56137380        0.61291401        3.20000000
    16.64409435        0.61233125        3.20000000
    16.72662114        0.61174760        3.20000000
    16.80895701        0.61116305        3.20000000
    16.89110472        0.61057758        3.20000000
    16.97306696        0.60999118        3.20000000
    17.05484633        0.60940384        3.20000000
    17.13644541        0.60881554        3.20000000
    17.21786667        0.60822628        3.20000000
    17.29911255        0.60763603        3.20000000
    17.38018542        0.60704480        3.20000000
    17.46108759        0.60645256        3.20000000
    17.54182133        0.60585931        3.20000000
    17.62238883        0.60526504        3.20000000
    17.70279224        0.60466973        3.20000000
    17.78303369        0.60407337        3.20000000
    17.86311520        0.60347596        3.20000000
    17.94303880        0.60287748        3.20000000
    18.02280644        0.60227792        3.20000000
    18.10242004        0.60167727        3.20000000
    18.18188149        0.60107553        3.20000000
    18.26119259        0.60047268        3.20000000
    18.34035517        0.59986870        3.20000000
    18.41937095        0.59926361        3.20000000
    18.49824166        0.59865737        3.20000000
    18.57696898        0.59804999        3.20000000
    18.65555454        0.59744146        3.20000000
    18.73399995        0.59683176        3.20000000
    18.81230679        0.59622088        3.20000000
    18.89047660        0.59560883        3.20000000
    18.96851088        0.59499558        3.20000000
    19.04641111        0.59438113        3.20000000
    19.12417873        0.59376548        3.20000000
    19.20181516        0.59314860        3.20000000
    19.27932178        0.59253050        3.20000000
    19.35669997        0.59191117        3.20000000
    19.43395104        0.59129060        3.20000000
    19.51107631        0.59066877        3.20000000
    19.58807705        0.59004569        3.20000000
    19.66495451        0.58942134        3.20000000
    19.74170993        0.58879572        3.20000000
    19.81834451        0.58816881        3.20000000
    19.89485944        0.58754062        3.20000000
    19.97125586        0.58691113        3.20000000
    20.04753493        0.58628033        3.20000000
    20.12369775        0.58564822        3.20000000
    20.19974541        0.58501479        3.20000000
    20.27567900        0.58438003        3.20000000
    20.35149957        0.58374394        3.20000000
    20.42720814        0.58310650        3.20000000
    20.50280573        0.58246771        3.20000000
    20.57829335        0.58182757        3.20000000
    20.65367195        0.58118606        3.20000000
    20.72894251        0.58054318        3.20000000
    20.80410597        0.57989893        3.20000000
    20.87916324        0.57925328        3.20000000
    20.95411525        0.57860625        3.20000000
    21.02896287        0.57795781        3.20000000
    21.10370699        0.57730797        3.20000000
    21.17834846        0.57665672        3.20000000
    21.25288813        0.57600404        3.20000000
    21.32732683        0.57534994        3.20000000
    21.40166537        0.57469440        3.20000000
    21.47590456        0.57403742        3.20000000
    21.55004517        0.57337900        3.20000000
    21.62408799        0.57271912        3.20000000
    21.69803377        0.57205778        3.20000000
    21.77188326        0.57139497        3.20000000
    21.84563719        0.57073069        3.20000000
    21.91929628        0.57006493        3.20000000
    21.99286124        0.56939768        3.20000000
    22.06633277        0.56872894        3.20000000
    22.13971155        0.56805870        3.20000000
    22.21299825        0.56738695        3.20000000
    22.28619353        0.56671368        3.20000000
    22.35929805        0.56603890        3.20000000
    22.43231244        0.56536259        3.20000000
    22.50523733        0.56468475        3.20000000
    22.57807335        0.56400537        3.20000000
    22.65082109        0.56332445        3.20000000
    22.72348115        0.56264197        3.20000000
    22.79605413        0.56195793        3.20000000
    22.86854059        0.56127233        3.20000000
    22.94094111        0.56058516        3.20000000
    23.01325624        0.55989641        3.20000000
    23.08548654        0.55920608        3.20000000
    23.15763254        0.55851416        3.20000000
    23.22969478        0.55782064        3.20000000
    23.30167377        0.55712552        3.20000000
    23.37357004        0.55642879        3.20000000
    23.44538408        0.55573044        3.20000000
    23.51711640        0.55503048        3.20000000
    23.58876749        0.55432888        3.20000000
    23.66033781        0.55362566        3.20000000
    23.73182786        0.55292079        3.20000000
    23.80323809        0.55221428        3.20000000
    23.87456896        0.55150611        3.20000000
    23.94582092        0.55079628        3.20000000
    24.01699441        0.55008479        3.20000000
    24.08808988        0.54937163        3.20000000
    24.15910775        0.54865679        3.20000000
    24.23004844        0.54794026        3.20000000
    24.30091236        0.54722205        3.20000000
    24.37169993        0.54650214        3.20000000
    24.44241154        0.54578052        3.20000000
    24.51304759        0.54505720        3.20000000
    24.58360847        0.54433216        3.20000000
    24.65409456        0.54360540        3.20000000
    24.72450624        0.54287691        3.20000000
    24.79484388        0.54214669        3.20000000
    24.86510783        0.54141472        3.20000000
    24.93529846        0.54068101        3.20000000
    25.00541613        0.53994555        3.20000000
    25.07546116        0.53920832        3.20000000
    25.14543392        0.53846933        3.20000000
    25.21533472        0.53772857        3.20000000
    25.28516390        0.53698603        3.20000000
    25.35492179        0.53624170        3.20000000
    25.42460870        0.53549559        3.20000000
    25.49422495        0.53474767        3.20000000
    25.56377084        0.53399795        3.20000000
    25.63324668        0.53324642        3.20000000
    25.70265276        0.53249307        3.20000000
    25.77198938        0.53173790        3.20000000
    25.84125682        0.53098090        3.20000000
    25.91045537        0.53022206        3.20000000
    25.97958530        0.52946138        3.20000000
    26.04864690        0.52869884        3.20000000
    26.11764042        0.52793446        3.20000000
    26.18656613        0.52716821        3.20000000
    26.25542430        0.52640009        3.20000000
    26.32421517        0.52563009        3.20000000
    26.39293900        0.52485821        3.20000000
    26.46159604        0.52408445        3.20000000
    26.53018652        0.52330878        3.20000000
    26.59871069        0.52253122        3.20000000
    26.66716877        0.52175175        3.20000000
    26.73556100        0.52097036        3.20000000
    26.80388760        0.52018705        3.20000000
    26.87214880        0.51940181        3.20000000
    26.94034481        0.51861463        3.20000000
    27.00847584        0.51782551        3.20000000
    27.07654211        0.51703444        3.20000000
    27.14454381        0.51624142        3.20000000
    27.21248117        0.51544643        3.20000000
    27.28035436        0.51464948        3.20000000
    27.34816358        0.51385054        3.20000000
    27.41590903        0.51304963        3.20000000
    27.48359089        0.51224672        3.20000000
    27.55120935        0.51144181        3.20000000
    27.61876459        0.51063490        3.20000000
    27.68625677        0.50982598        3.20000000
    27.75368608        0.50901504        3.20000000
    27.82105269        0.50820208        3.20000000
    27.88835676        0.50738708        3.20000000
    27.95559845        0.50657005        3.20000000
    28.02277792        0.50575096        3.20000000
    28.08989534        0.50492983        3.20000000
    28.15695084        0.50410663        3.20000000
    28.22394459        0.50328136        3.20000000
    28.29087673        0.50245402        3.20000000
    28.35774739        0.50162459        3.20000000
    28.42455674        0.50079308        3.20000000
    28.49130489        0.49995947        3.20000000
    28.55799198        0.49912375        3.20000000
    28.62461815        0.49828592        3.20000000
    28.69118352        0.49744597        3.20000000
    28.75768822        0.49660389        3.20000000
    28.82413237        0.49575968        3.20000000
    28.89051609        0.49491333        3.20000000
    28.95683949        0.49406483        3.20000000
    29.02310269        0.49321417        3.20000000
    29.08930580        0.49236135        3.20000000
    29.15544893        0.49150635        3.20000000
    29.22153218        0.49064918        3.20000000
    29.28755566        0.48978982        3.20000000
    29.35351945        0.48892826        3.20000000
    29.41942367        0.48806450        3.20000000
    29.48526841        0.48719853        3.20000000
    29.55105375        0.48633033        3.20000000
    29.61677978        0.48545992        3.20000000
    29.68244660        0.48458727        3.20000000
    29.74805428        0.48371237        3.20000000
    29.81360290        0.48283523        3.20000000
    29.87909255        0.48195582        3.20000000
    29.94452330        0.48107415        3.20000000
    30.00989522        0.48019021        3.20000000
    30.07520838        0.47930398        3.20000000
    30.14046286        0.47841547        3.20000000
    30.20565872        0.47752465        3.20000000
    30.27079601        0.47663153        3.20000000
    30.33587481        0.47573609        3.20000000
    30.40089516        0.47483833        3.20000000
    30.46585714        0.47393823        3.20000000
    30.53076078        0.47303580        3.20000000
    30.59560614        0.47213101        3.20000000
    30.66039327        0.47122387        3.20000000
    30.72512222        0.47031436        3.20000000
    30.78979303        0.46940248        3.20000000
    30.85440575        0.46848821        3.20000000
    30.91896041        0.46757156        3.20000000
    30.98345704        0.46665250        3.20000000
    31.04789569        0.46573103        3.20000000
    31.11227639        0.46480715        3.20000000
    31.17659916        0.46388084        3.20000000
    31.24086405        0.46295209        3.20000000
    31.30507106        0.46202090        3.20000000
    31.36922023        0.46108726        3.20000000
    31.43331158        0.46015115        3.20000000
    31.49734513        0.45921257        3.20000000
    31.56132089        0.45827151        3.20000000
    31.62523888        0.45732796        3.20000000
    31.68909911        0.45638192        3.20000000
    31.75290160        0.45543336        3.20000000
    31.81664635        0.45448229        3.20000000
    31.88033337        0.45352869        3.20000000
    31.94396267        0.45257256        3.20000000
    32.00753424        0.45161388        3.20000000
    32.07104809        0.45065264        3.20000000
    32.13450421        0.44968884        3.20000000
    32.19790260        0.44872247        3.20000000
    32.26124325        0.44775351        3.20000000
    32.32452617        0.44678197        3.20000000
    32.38775133        0.44580781        3.20000000
    32.45091872        0.44483105        3.20000000
    32.51402834        0.44385166        3.20000000
    32.57708015        0.44286964        3.20000000
    32.64007416        0.44188498        3.20000000
    32.70301033        0.44089767        3.20000000
    32.76588864        0.43990770        3.20000000
    32.82870907        0.43891505        3.20000000
    32.89147159        0.43791972        3.20000000
    32.95417618        0.43692170        3.20000000
    33.01682280        0.43592098        3.20000000
    33.07941142        0.43491754        3.20000000
    33.14194202        0.43391138        3.20000000
    33.20441454        0.43290249        3.20000000
    33.26682895        0.43189085        3.20000000
    33.32918522        0.43087646        3.20000000
    33.39148330        0.42985930        3.20000000
    33.45372315        0.42883937        3.20000000
    33.51590471        0.42781665        3.20000000
    33.57802795        0.42679113        3.20000000
    33.64009281        0.42576281        3.20000000
    33.70209924        0.42473167        3.20000000
    33.76404719        0.42369770        3.20000000
    33.82593660        0.42266088        3.20000000
    33.88776741        0.42162122        3.20000000
    33.94953957        0.42057869        3.20000000
    34.01125300        0.41953329        3.20000000
    34.07290766        0.41848501        3.20000000
    34.13450347        0.41743383        3.20000000
    34.19604037        0.41637974        3.20000000
    34.25751828        0.41532273        3.20000000
    34.31893714        0.41426279        3.20000000
    34.38029687        0.41319991        3.20000000
    34.44159739        0.41213408        3.20000000
    34.50283864        0.41106528        3.20000000
    34.56402053        0.40999350        3.20000000
    34.62514298        0.40891874        3.20000000
    34.68620590        0.40784097        3.20000000
    34.74720922        0.40676020        3.20000000
    34.80815285        0.40567639        3.20000000
    34.86903669        0.40458956        3.20000000
    34.92986066        0.40349967        3.20000000
    34.99062467        0.40240672        3.20000000
    35.05132861        0.40131070        3.20000000
    35.11197240        0.40021160        3.20000000
    35.17255594        0.39910939        3.20000000
    35.23307912        0.39800408        3.20000000
    35.29354186        0.39689565        3.20000000
    35.35394403        0.39578407        3.20000000
    35.41428553        0.39466936        3.20000000
    35.47456626        0.39355148        3.20000000
