#  Theta paroi en °  Inverse Mach Paroi  Mach amont
     1.92823594        0.53403071        2.16000000
     2.31600114        0.53295086        2.16000000
     2.73785137        0.53164311        2.16000000
     3.19509578        0.53008310        2.16000000
     3.66802917        0.52832668        2.16000000
     4.14481018        0.52642039        2.16000000
     4.62061243        0.52439186        2.16000000
     5.09431841        0.52225502        2.16000000
     5.56654822        0.52001501        2.16000000
     6.03869143        0.51767135        2.16000000
     6.43107872        0.51564786        2.16000000
     6.77169172        0.51383761        2.16000000
     7.07564610        0.51218118        2.16000000
     7.35211153        0.51064174        2.16000000
     7.60710397        0.50919467        2.16000000
     7.84480074        0.50782265        2.16000000
     8.06823026        0.50651292        2.16000000
     8.27966361        0.50525584        2.16000000
     8.48085127        0.50404388        2.16000000
     8.67317322        0.50287107        2.16000000
     8.85773820        0.50173256        2.16000000
     9.03545152        0.50062437        2.16000000
     9.20706275        0.49954318        2.16000000
     9.37320001        0.49848619        2.16000000
     9.53439540        0.49745100        2.16000000
     9.69110385        0.49643559        2.16000000
     9.84371764        0.49543816        2.16000000
     9.99257758        0.49445716        2.16000000
    10.13798182        0.49349124        2.16000000
    10.28019277        0.49253919        2.16000000
    10.41944270        0.49159993        2.16000000
    10.55593827        0.49067252        2.16000000
    10.68986423        0.48975609        2.16000000
    10.82138647        0.48884987        2.16000000
    10.95065453        0.48795316        2.16000000
    11.07780373        0.48706533        2.16000000
    11.20295693        0.48618580        2.16000000
    11.32622607        0.48531405        2.16000000
    11.44771346        0.48444958        2.16000000
    11.56751280        0.48359195        2.16000000
    11.68571024        0.48274075        2.16000000
    11.80238508        0.48189561        2.16000000
    11.91761058        0.48105617        2.16000000
    12.03145451        0.48022211        2.16000000
    12.14397972        0.47939312        2.16000000
    12.25524462        0.47856892        2.16000000
    12.36530357        0.47774926        2.16000000
    12.47420725        0.47693388        2.16000000
    12.58200306        0.47612255        2.16000000
    12.68873529        0.47531506        2.16000000
    12.79444548        0.47451120        2.16000000
    12.89917263        0.47371079        2.16000000
    13.00295336        0.47291364        2.16000000
    13.10582216        0.47211958        2.16000000
    13.20781153        0.47132846        2.16000000
    13.30895213        0.47054012        2.16000000
    13.40927291        0.46975441        2.16000000
    13.50880128        0.46897120        2.16000000
    13.60756317        0.46819036        2.16000000
    13.70558315        0.46741177        2.16000000
    13.80288454        0.46663531        2.16000000
    13.89948950        0.46586087        2.16000000
    13.99541906        0.46508835        2.16000000
    14.09069326        0.46431763        2.16000000
    14.18533116        0.46354863        2.16000000
    14.27935094        0.46278125        2.16000000
    14.37276994        0.46201540        2.16000000
    14.46560468        0.46125100        2.16000000
    14.55787100        0.46048797        2.16000000
    14.64958398        0.45972623        2.16000000
    14.74075811        0.45896570        2.16000000
    14.83140719        0.45820632        2.16000000
    14.92154451        0.45744801        2.16000000
    15.01118275        0.45669070        2.16000000
    15.10033412        0.45593434        2.16000000
    15.18901030        0.45517887        2.16000000
    15.27722254        0.45442421        2.16000000
    15.36498162        0.45367032        2.16000000
    15.45229793        0.45291714        2.16000000
    15.53918145        0.45216462        2.16000000
    15.62564179        0.45141271        2.16000000
    15.71168818        0.45066135        2.16000000
    15.79732957        0.44991050        2.16000000
    15.88257451        0.44916011        2.16000000
    15.96743132        0.44841013        2.16000000
    16.05190798        0.44766053        2.16000000
    16.13601219        0.44691126        2.16000000
    16.21975142        0.44616228        2.16000000
    16.30313286        0.44541355        2.16000000
    16.38616346        0.44466504        2.16000000
    16.46884995        0.44391669        2.16000000
    16.55119883        0.44316849        2.16000000
    16.63321638        0.44242038        2.16000000
    16.71490872        0.44167235        2.16000000
    16.79628173        0.44092435        2.16000000
    16.87734112        0.44017635        2.16000000
    16.95809243        0.43942832        2.16000000
    17.03854102        0.43868023        2.16000000
    17.11869210        0.43793205        2.16000000
    17.19855072        0.43718375        2.16000000
    17.27812176        0.43643530        2.16000000
    17.35740999        0.43568667        2.16000000
    17.43642000        0.43493784        2.16000000
    17.51515630        0.43418878        2.16000000
    17.59362322        0.43343947        2.16000000
    17.67182499        0.43268987        2.16000000
    17.74976573        0.43193996        2.16000000
    17.82744943        0.43118973        2.16000000
    17.90487998        0.43043914        2.16000000
    17.98206116        0.42968818        2.16000000
    18.05899664        0.42893681        2.16000000
    18.13569001        0.42818502        2.16000000
    18.21214475        0.42743279        2.16000000
    18.28836425        0.42668009        2.16000000
    18.36435182        0.42592690        2.16000000
    18.44011068        0.42517321        2.16000000
    18.51564396        0.42441899        2.16000000
    18.59095472        0.42366423        2.16000000
    18.66604594        0.42290890        2.16000000
    18.74092053        0.42215298        2.16000000
    18.81558132        0.42139646        2.16000000
    18.89003107        0.42063932        2.16000000
    18.96427248        0.41988154        2.16000000
    19.03830818        0.41912310        2.16000000
    19.11214074        0.41836398        2.16000000
    19.18577266        0.41760418        2.16000000
    19.25920640        0.41684366        2.16000000
    19.33244434        0.41608242        2.16000000
    19.40548881        0.41532044        2.16000000
    19.47834210        0.41455770        2.16000000
    19.55100643        0.41379419        2.16000000
    19.62348399        0.41302989        2.16000000
    19.69577689        0.41226478        2.16000000
    19.76788722        0.41149886        2.16000000
    19.83981701        0.41073210        2.16000000
    19.91156826        0.40996450        2.16000000
    19.98314289        0.40919603        2.16000000
    20.05454283        0.40842668        2.16000000
    20.12576991        0.40765644        2.16000000
    20.19682598        0.40688530        2.16000000
    20.26771280        0.40611324        2.16000000
    20.33843212        0.40534024        2.16000000
    20.40898565        0.40456630        2.16000000
    20.47937505        0.40379141        2.16000000
    20.54960197        0.40301554        2.16000000
    20.61966799        0.40223868        2.16000000
    20.68957470        0.40146083        2.16000000
    20.75932362        0.40068197        2.16000000
    20.82891626        0.39990209        2.16000000
    20.89835410        0.39912117        2.16000000
    20.96763857        0.39833921        2.16000000
    21.03677110        0.39755619        2.16000000
    21.10575306        0.39677209        2.16000000
    21.17458582        0.39598692        2.16000000
    21.24327070        0.39520065        2.16000000
    21.31180902        0.39441328        2.16000000
    21.38020205        0.39362479        2.16000000
    21.44845105        0.39283517        2.16000000
    21.51655724        0.39204442        2.16000000
    21.58452183        0.39125251        2.16000000
    21.65234602        0.39045944        2.16000000
    21.72003095        0.38966520        2.16000000
    21.78757777        0.38886978        2.16000000
    21.85498759        0.38807316        2.16000000
    21.92226151        0.38727534        2.16000000
    21.98940060        0.38647631        2.16000000
    22.05640591        0.38567605        2.16000000
    22.12327849        0.38487456        2.16000000
    22.19001935        0.38407182        2.16000000
    22.25662948        0.38326782        2.16000000
    22.32310986        0.38246256        2.16000000
    22.38946146        0.38165602        2.16000000
    22.45568522        0.38084819        2.16000000
    22.52178206        0.38003907        2.16000000
    22.58775289        0.37922865        2.16000000
    22.65359860        0.37841691        2.16000000
    22.71932007        0.37760384        2.16000000
    22.78491816        0.37678944        2.16000000
    22.85039372        0.37597369        2.16000000
    22.91574757        0.37515659        2.16000000
    22.98098053        0.37433813        2.16000000
    23.04609340        0.37351829        2.16000000
    23.11108695        0.37269707        2.16000000
    23.17596199        0.37187446        2.16000000
    23.24071924        0.37105045        2.16000000
    23.30535946        0.37022503        2.16000000
    23.36988339        0.36939819        2.16000000
    23.43429173        0.36856992        2.16000000
    23.49858521        0.36774021        2.16000000
    23.56276451        0.36690906        2.16000000
    23.62683031        0.36607645        2.16000000
    23.69078328        0.36524238        2.16000000
    23.75462409        0.36440683        2.16000000
    23.81835338        0.36356980        2.16000000
    23.88197177        0.36273128        2.16000000
    23.94547991        0.36189125        2.16000000
    24.00887840        0.36104972        2.16000000
    24.07216785        0.36020667        2.16000000
    24.13534884        0.35936210        2.16000000
    24.19842197        0.35851599        2.16000000
    24.26138780        0.35766833        2.16000000
    24.32424689        0.35681913        2.16000000
    24.38699981        0.35596836        2.16000000
    24.44964709        0.35511602        2.16000000
    24.51218927        0.35426211        2.16000000
    24.57462686        0.35340660        2.16000000
    24.63696040        0.35254951        2.16000000
    24.69919038        0.35169080        2.16000000
    24.76131730        0.35083049        2.16000000
    24.82334165        0.34996855        2.16000000
    24.88526391        0.34910499        2.16000000
    24.94708457        0.34823979        2.16000000
    25.00880407        0.34737294        2.16000000
    25.07042288        0.34650444        2.16000000
    25.13194145        0.34563427        2.16000000
    25.19336021        0.34476243        2.16000000
    25.25467961        0.34388892        2.16000000
    25.31590006        0.34301371        2.16000000
    25.37702199        0.34213681        2.16000000
    25.43804580        0.34125821        2.16000000
    25.49897190        0.34037789        2.16000000
    25.55980070        0.33949585        2.16000000
    25.62053257        0.33861208        2.16000000
    25.68116790        0.33772658        2.16000000
    25.74170706        0.33683933        2.16000000
    25.80215044        0.33595032        2.16000000
    25.86249838        0.33505955        2.16000000
    25.92275126        0.33416701        2.16000000
    25.98290941        0.33327270        2.16000000
    26.04297317        0.33237659        2.16000000
    26.10294291        0.33147869        2.16000000
    26.16281893        0.33057899        2.16000000
    26.22260158        0.32967748        2.16000000
    26.28229116        0.32877414        2.16000000
    26.34188799        0.32786898        2.16000000
    26.40139239        0.32696198        2.16000000
    26.46080465        0.32605314        2.16000000
    26.52012507        0.32514244        2.16000000
    26.57935394        0.32422989        2.16000000
    26.63849156        0.32331546        2.16000000
    26.69753819        0.32239916        2.16000000
    26.75649413        0.32148097        2.16000000
    26.81535962        0.32056089        2.16000000
    26.87413496        0.31963891        2.16000000
    26.93282038        0.31871502        2.16000000
    26.99141615        0.31778920        2.16000000
    27.04992253        0.31686147        2.16000000
    27.10833974        0.31593180        2.16000000
    27.16666804        0.31500018        2.16000000
    27.22490767        0.31406662        2.16000000
    27.28305884        0.31313109        2.16000000
    27.34112179        0.31219360        2.16000000
    27.39909675        0.31125413        2.16000000
    27.45698391        0.31031268        2.16000000
    27.51478352        0.30936924        2.16000000
    27.57249576        0.30842380        2.16000000
    27.63012084        0.30747634        2.16000000
    27.68765896        0.30652687        2.16000000
    27.74511033        0.30557538        2.16000000
    27.80247512        0.30462185        2.16000000
    27.85975353        0.30366628        2.16000000
    27.91694575        0.30270866        2.16000000
    27.97405193        0.30174899        2.16000000
    28.03107227        0.30078724        2.16000000
    28.08800694        0.29982342        2.16000000
    28.14485609        0.29885752        2.16000000
    28.20161990        0.29788953        2.16000000
    28.25829852        0.29691943        2.16000000
    28.31489211        0.29594723        2.16000000
    28.37140082        0.29497291        2.16000000
    28.42782480        0.29399646        2.16000000
    28.48416418        0.29301788        2.16000000
    28.54041911        0.29203716        2.16000000
    28.59658973        0.29105429        2.16000000
    28.65267618        0.29006926        2.16000000
    28.70867857        0.28908206        2.16000000
    28.76459703        0.28809269        2.16000000
    28.82043169        0.28710113        2.16000000
    28.87618267        0.28610738        2.16000000
    28.93185008        0.28511143        2.16000000
    28.98743403        0.28411326        2.16000000
    29.04293464        0.28311288        2.16000000
    29.09835200        0.28211027        2.16000000
    29.15368622        0.28110543        2.16000000
    29.20893740        0.28009834        2.16000000
    29.26410563        0.27908899        2.16000000
    29.31919100        0.27807739        2.16000000
    29.37419360        0.27706351        2.16000000
    29.42911353        0.27604736        2.16000000
    29.48395086        0.27502892        2.16000000
    29.53870566        0.27400818        2.16000000
    29.59337803        0.27298513        2.16000000
    29.64796802        0.27195977        2.16000000
    29.70247571        0.27093209        2.16000000
    29.75690117        0.26990208        2.16000000
    29.81124446        0.26886972        2.16000000
    29.86550564        0.26783502        2.16000000
    29.91968477        0.26679796        2.16000000
    29.97378191        0.26575853        2.16000000
    30.02779711        0.26471672        2.16000000
    30.08173040        0.26367253        2.16000000
    30.13558186        0.26262594        2.16000000
    30.18935150        0.26157695        2.16000000
    30.24303938        0.26052555        2.16000000
    30.29664554        0.25947173        2.16000000
    30.35017001        0.25841548        2.16000000
    30.40361282        0.25735678        2.16000000
    30.45697399        0.25629564        2.16000000
    30.51025357        0.25523204        2.16000000
    30.56345156        0.25416598        2.16000000
    30.61656800        0.25309744        2.16000000
    30.66960290        0.25202641        2.16000000
    30.72255627        0.25095289        2.16000000
    30.77542813        0.24987686        2.16000000
    30.82821850        0.24879832        2.16000000
    30.88092737        0.24771726        2.16000000
    30.93355474        0.24663367        2.16000000
    30.98610064        0.24554754        2.16000000
    31.03856505        0.24445885        2.16000000
    31.09094797        0.24336761        2.16000000
    31.14324939        0.24227379        2.16000000
    31.19546932        0.24117740        2.16000000
    31.24760773        0.24007842        2.16000000
    31.29966461        0.23897684        2.16000000
    31.35163996        0.23787265        2.16000000
    31.40353374        0.23676585        2.16000000
    31.45534595        0.23565642        2.16000000
    31.50707654        0.23454435        2.16000000
    31.55872551        0.23342963        2.16000000
    31.61029283        0.23231226        2.16000000
    31.66177845        0.23119223        2.16000000
    31.71318236        0.23006952        2.16000000
    31.76450450        0.22894412        2.16000000
    31.81574485        0.22781603        2.16000000
    31.86690337        0.22668523        2.16000000
    31.91798001        0.22555172        2.16000000
    31.96897472        0.22441549        2.16000000
    32.01988747        0.22327652        2.16000000
    32.07071819        0.22213480        2.16000000
    32.12146683        0.22099033        2.16000000
    32.17213335        0.21984309        2.16000000
    32.22271768        0.21869308        2.16000000
    32.27321977        0.21754029        2.16000000
    32.32363955        0.21638470        2.16000000
    32.37397695        0.21522630        2.16000000
    32.42423191        0.21406509        2.16000000
    32.47440437        0.21290105        2.16000000
    32.52449424        0.21173417        2.16000000
    32.57450146        0.21056445        2.16000000
    32.62442595        0.20939187        2.16000000
    32.67426763        0.20821643        2.16000000
    32.72402642        0.20703810        2.16000000
    32.77370224        0.20585689        2.16000000
    32.82329499        0.20467278        2.16000000
    32.87280460        0.20348576        2.16000000
    32.92223098        0.20229582        2.16000000
    32.97157402        0.20110294        2.16000000
    33.02083364        0.19990713        2.16000000
    33.07000974        0.19870836        2.16000000
    33.11910221        0.19750664        2.16000000
    33.16811096        0.19630193        2.16000000
    33.21703589        0.19509425        2.16000000
    33.26587688        0.19388357        2.16000000
    33.31463384        0.19266988        2.16000000
    33.36330664        0.19145317        2.16000000
    33.41189517        0.19023344        2.16000000
    33.46039932        0.18901067        2.16000000
    33.50881897        0.18778484        2.16000000
    33.55715400        0.18655596        2.16000000
    33.60540429        0.18532400        2.16000000
    33.65356971        0.18408897        2.16000000
    33.70165014        0.18285083        2.16000000
    33.74964545        0.18160959        2.16000000
    33.79755550        0.18036523        2.16000000
    33.84538017        0.17911775        2.16000000
    33.89311931        0.17786712        2.16000000
    33.94077278        0.17661334        2.16000000
    33.98834046        0.17535640        2.16000000
    34.03582219        0.17409629        2.16000000
    34.08321782        0.17283299        2.16000000
    34.13052722        0.17156649        2.16000000
    34.17775023        0.17029679        2.16000000
    34.22488670        0.16902386        2.16000000
