#  Theta paroi en °         Kp           Mach amont
     1.00413915        0.00156402        6.00000000
     1.21709694        0.00214922        6.00000000
     1.44393833        0.00284497        6.00000000
     1.68866431        0.00367325        6.00000000
     1.94328047        0.00461544        6.00000000
     2.20356204        0.00565931        6.00000000
     2.46863549        0.00680317        6.00000000
     2.73934125        0.00805317        6.00000000
     3.01728521        0.00942104        6.00000000
     3.30438865        0.01092271        6.00000000
     3.55068697        0.01228236        6.00000000
     3.77051627        0.01355143        6.00000000
     3.97161057        0.01475823        6.00000000
     4.15865709        0.01592011        6.00000000
     4.33472873        0.01704858        6.00000000
     4.50195794        0.01815165        6.00000000
     4.66188980        0.01923515        6.00000000
     4.81568236        0.02030347        6.00000000
     4.96422787        0.02135997        6.00000000
     5.10822945        0.02240732        6.00000000
     5.24825171        0.02344765        6.00000000
     5.38475561        0.02448268        6.00000000
     5.51812265        0.02551386        6.00000000
     5.64867248        0.02654236        6.00000000
     5.77667580        0.02756918        6.00000000
     5.90236409        0.02859520        6.00000000
     6.02593688        0.02962112        6.00000000
     6.14756756        0.03064757        6.00000000
     6.26740783        0.03167511        6.00000000
     6.38559123        0.03270421        6.00000000
     6.50223599        0.03373528        6.00000000
     6.61744734        0.03476869        6.00000000
     6.73131941        0.03580476        6.00000000
     6.84393671        0.03684379        6.00000000
     6.95537551        0.03788602        6.00000000
     7.06570487        0.03893169        6.00000000
     7.17498751        0.03998100        6.00000000
     7.28328065        0.04103414        6.00000000
     7.39063661        0.04209127        6.00000000
     7.49710336        0.04315254        6.00000000
     7.60272504        0.04421809        6.00000000
     7.70754233        0.04528804        6.00000000
     7.81159288        0.04636251        6.00000000
     7.91491151        0.04744159        6.00000000
     8.01753057        0.04852537        6.00000000
     8.11948017        0.04961395        6.00000000
     8.22078838        0.05070740        6.00000000
     8.32148140        0.05180578        6.00000000
     8.42158372        0.05290917        6.00000000
     8.52111836        0.05401762        6.00000000
     8.62010685        0.05513119        6.00000000
     8.71856948        0.05624992        6.00000000
     8.81652532        0.05737387        6.00000000
     8.91399236        0.05850307        6.00000000
     9.01098757        0.05963756        6.00000000
     9.10752702        0.06077737        6.00000000
     9.20362588        0.06192255        6.00000000
     9.29929854        0.06307311        6.00000000
     9.39455864        0.06422909        6.00000000
     9.48941916        0.06539050        6.00000000
     9.58389238        0.06655738        6.00000000
     9.67799002        0.06772974        6.00000000
     9.77172325        0.06890760        6.00000000
     9.86510269        0.07009098        6.00000000
     9.95813849        0.07127989        6.00000000
    10.05084033        0.07247435        6.00000000
    10.14321747        0.07367437        6.00000000
    10.23527874        0.07487996        6.00000000
    10.32703264        0.07609114        6.00000000
    10.41848726        0.07730790        6.00000000
    10.50965038        0.07853026        6.00000000
    10.60052945        0.07975823        6.00000000
    10.69113164        0.08099181        6.00000000
    10.78146382        0.08223101        6.00000000
    10.87153259        0.08347583        6.00000000
    10.96134429        0.08472628        6.00000000
    11.05090505        0.08598235        6.00000000
    11.14022073        0.08724406        6.00000000
    11.22929701        0.08851140        6.00000000
    11.31813934        0.08978437        6.00000000
    11.40675298        0.09106297        6.00000000
    11.49514301        0.09234721        6.00000000
    11.58331432        0.09363708        6.00000000
    11.67127166        0.09493259        6.00000000
    11.75901957        0.09623373        6.00000000
    11.84656249        0.09754049        6.00000000
    11.93390467        0.09885288        6.00000000
    12.02105026        0.10017090        6.00000000
    12.10800324        0.10149453        6.00000000
    12.19476748        0.10282379        6.00000000
    12.28134672        0.10415865        6.00000000
    12.36774460        0.10549913        6.00000000
    12.45396462        0.10684521        6.00000000
    12.54001020        0.10819689        6.00000000
    12.62588463        0.10955416        6.00000000
    12.71159113        0.11091703        6.00000000
    12.79713281        0.11228548        6.00000000
    12.88251268        0.11365950        6.00000000
    12.96773368        0.11503910        6.00000000
    13.05279866        0.11642427        6.00000000
    13.13771038        0.11781499        6.00000000
    13.22247153        0.11921127        6.00000000
    13.30708472        0.12061309        6.00000000
    13.39155250        0.12202045        6.00000000
    13.47587733        0.12343334        6.00000000
    13.56006163        0.12485175        6.00000000
    13.64410773        0.12627568        6.00000000
    13.72801792        0.12770512        6.00000000
    13.81179440        0.12914006        6.00000000
    13.89543935        0.13058049        6.00000000
    13.97895485        0.13202640        6.00000000
    14.06234297        0.13347779        6.00000000
    14.14560570        0.13493464        6.00000000
    14.22874499        0.13639695        6.00000000
    14.31176274        0.13786471        6.00000000
    14.39466078        0.13933790        6.00000000
    14.47744095        0.14081653        6.00000000
    14.56010499        0.14230058        6.00000000
    14.64265461        0.14379004        6.00000000
    14.72509151        0.14528490        6.00000000
    14.80741731        0.14678515        6.00000000
    14.88963361        0.14829079        6.00000000
    14.97174197        0.14980180        6.00000000
    15.05374391        0.15131817        6.00000000
    15.13564094        0.15283989        6.00000000
    15.21743448        0.15436695        6.00000000
    15.29912596        0.15589935        6.00000000
    15.38071679        0.15743707        6.00000000
    15.46220831        0.15898009        6.00000000
    15.54360183        0.16052842        6.00000000
    15.62489867        0.16208204        6.00000000
    15.70610008        0.16364094        6.00000000
    15.78720732        0.16520510        6.00000000
    15.86822159        0.16677452        6.00000000
    15.94914406        0.16834919        6.00000000
    16.02997591        0.16992909        6.00000000
    16.11071828        0.17151421        6.00000000
    16.19137225        0.17310455        6.00000000
    16.27193893        0.17470009        6.00000000
    16.35241939        0.17630081        6.00000000
    16.43281465        0.17790672        6.00000000
    16.51312575        0.17951779        6.00000000
    16.59335367        0.18113402        6.00000000
    16.67349940        0.18275539        6.00000000
    16.75356388        0.18438189        6.00000000
    16.83354807        0.18601351        6.00000000
    16.91345288        0.18765024        6.00000000
    16.99327920        0.18929206        6.00000000
    17.07302791        0.19093897        6.00000000
    17.15269990        0.19259095        6.00000000
    17.23229599        0.19424798        6.00000000
    17.31181701        0.19591007        6.00000000
    17.39126378        0.19757719        6.00000000
    17.47063710        0.19924933        6.00000000
    17.54993775        0.20092648        6.00000000
    17.62916649        0.20260863        6.00000000
    17.70832407        0.20429576        6.00000000
    17.78741123        0.20598787        6.00000000
    17.86642870        0.20768493        6.00000000
    17.94537716        0.20938694        6.00000000
    18.02425734        0.21109389        6.00000000
    18.10306989        0.21280575        6.00000000
    18.18181550        0.21452253        6.00000000
    18.26049481        0.21624420        6.00000000
    18.33910847        0.21797075        6.00000000
    18.41765711        0.21970218        6.00000000
    18.49614134        0.22143845        6.00000000
    18.57456177        0.22317958        6.00000000
    18.65291901        0.22492553        6.00000000
    18.73121363        0.22667630        6.00000000
    18.80944620        0.22843187        6.00000000
    18.88761729        0.23019223        6.00000000
    18.96572745        0.23195737        6.00000000
    19.04377724        0.23372727        6.00000000
    19.12176715        0.23550192        6.00000000
    19.19969774        0.23728131        6.00000000
    19.27756951        0.23906542        6.00000000
    19.35538296        0.24085424        6.00000000
    19.43313859        0.24264775        6.00000000
    19.51083688        0.24444595        6.00000000
    19.58847831        0.24624881        6.00000000
    19.66606334        0.24805633        6.00000000
    19.74359243        0.24986849        6.00000000
    19.82106604        0.25168527        6.00000000
    19.89848461        0.25350666        6.00000000
    19.97584857        0.25533266        6.00000000
    20.05315835        0.25716324        6.00000000
    20.13041437        0.25899838        6.00000000
    20.20761704        0.26083809        6.00000000
    20.28476675        0.26268233        6.00000000
    20.36186392        0.26453110        6.00000000
    20.43890893        0.26638439        6.00000000
    20.51590215        0.26824217        6.00000000
    20.59284399        0.27010444        6.00000000
    20.66973478        0.27197118        6.00000000
    20.74657491        0.27384238        6.00000000
    20.82336472        0.27571801        6.00000000
    20.90010456        0.27759808        6.00000000
    20.97679479        0.27948255        6.00000000
    21.05343573        0.28137142        6.00000000
    21.13002771        0.28326468        6.00000000
    21.20657107        0.28516230        6.00000000
    21.28306613        0.28706428        6.00000000
    21.35951318        0.28897059        6.00000000
    21.43591256        0.29088123        6.00000000
    21.51226454        0.29279618        6.00000000
    21.58856945        0.29471542        6.00000000
    21.66482756        0.29663895        6.00000000
    21.74103916        0.29856673        6.00000000
    21.81720454        0.30049877        6.00000000
    21.89332396        0.30243504        6.00000000
    21.96939771        0.30437553        6.00000000
    22.04542604        0.30632022        6.00000000
    22.12140923        0.30826911        6.00000000
    22.19734752        0.31022217        6.00000000
    22.27324117        0.31217938        6.00000000
    22.34909044        0.31414074        6.00000000
    22.42489555        0.31610623        6.00000000
    22.50065675        0.31807583        6.00000000
    22.57637428        0.32004953        6.00000000
    22.65204835        0.32202731        6.00000000
    22.72767921        0.32400915        6.00000000
    22.80326707        0.32599505        6.00000000
    22.87881216        0.32798498        6.00000000
    22.95431467        0.32997894        6.00000000
    23.02977483        0.33197690        6.00000000
    23.10519283        0.33397884        6.00000000
    23.18056889        0.33598476        6.00000000
    23.25590319        0.33799464        6.00000000
    23.33119593        0.34000846        6.00000000
    23.40644731        0.34202621        6.00000000
    23.48165751        0.34404787        6.00000000
    23.55682672        0.34607342        6.00000000
    23.63195510        0.34810285        6.00000000
    23.70704285        0.35013615        6.00000000
    23.78209013        0.35217329        6.00000000
    23.85709711        0.35421426        6.00000000
    23.93206396        0.35625905        6.00000000
    24.00699084        0.35830764        6.00000000
    24.08187791        0.36036001        6.00000000
    24.15672534        0.36241614        6.00000000
    24.23153326        0.36447603        6.00000000
    24.30630183        0.36653966        6.00000000
    24.38103120        0.36860700        6.00000000
    24.45572152        0.37067804        6.00000000
    24.53037291        0.37275277        6.00000000
    24.60498553        0.37483118        6.00000000
    24.67955951        0.37691323        6.00000000
    24.75409498        0.37899892        6.00000000
    24.82859207        0.38108824        6.00000000
    24.90305090        0.38318116        6.00000000
    24.97747160        0.38527766        6.00000000
    25.05185429        0.38737774        6.00000000
    25.12619910        0.38948138        6.00000000
    25.20050612        0.39158855        6.00000000
    25.27477549        0.39369925        6.00000000
    25.34900731        0.39581345        6.00000000
    25.42320168        0.39793114        6.00000000
    25.49735872        0.40005231        6.00000000
    25.57147852        0.40217693        6.00000000
    25.64556119        0.40430499        6.00000000
    25.71960683        0.40643647        6.00000000
    25.79361553        0.40857136        6.00000000
    25.86758737        0.41070964        6.00000000
    25.94152247        0.41285129        6.00000000
    26.01542090        0.41499629        6.00000000
    26.08928275        0.41714464        6.00000000
    26.16310810        0.41929631        6.00000000
    26.23689703        0.42145128        6.00000000
    26.31064964        0.42360954        6.00000000
    26.38436598        0.42577107        6.00000000
    26.45804614        0.42793586        6.00000000
    26.53169019        0.43010388        6.00000000
    26.60529820        0.43227513        6.00000000
    26.67887024        0.43444957        6.00000000
    26.75240638        0.43662721        6.00000000
    26.82590667        0.43880801        6.00000000
    26.89937119        0.44099196        6.00000000
    26.97279999        0.44317905        6.00000000
    27.04619313        0.44536926        6.00000000
    27.11955068        0.44756257        6.00000000
    27.19287267        0.44975896        6.00000000
    27.26615917        0.45195842        6.00000000
    27.33941022        0.45416092        6.00000000
    27.41262587        0.45636646        6.00000000
    27.48580617        0.45857501        6.00000000
    27.55895117        0.46078655        6.00000000
    27.63206090        0.46300108        6.00000000
    27.70513541        0.46521857        6.00000000
    27.77817474        0.46743900        6.00000000
    27.85117892        0.46966236        6.00000000
    27.92414799        0.47188863        6.00000000
    27.99708198        0.47411779        6.00000000
    28.06998093        0.47634983        6.00000000
    28.14284486        0.47858472        6.00000000
    28.21567381        0.48082245        6.00000000
    28.28846779        0.48306300        6.00000000
    28.36122684        0.48530636        6.00000000
    28.43395097        0.48755250        6.00000000
    28.50664022        0.48980142        6.00000000
    28.57929459        0.49205308        6.00000000
    28.65191411        0.49430748        6.00000000
    28.72449879        0.49656459        6.00000000
    28.79704865        0.49882440        6.00000000
    28.86956370        0.50108689        6.00000000
    28.94204395        0.50335205        6.00000000
    29.01448941        0.50561985        6.00000000
    29.08690009        0.50789027        6.00000000
    29.15927600        0.51016331        6.00000000
    29.23161714        0.51243893        6.00000000
    29.30392351        0.51471713        6.00000000
    29.37619511        0.51699788        6.00000000
    29.44843196        0.51928117        6.00000000
    29.52063404        0.52156698        6.00000000
    29.59280135        0.52385529        6.00000000
    29.66493389        0.52614609        6.00000000
    29.73703165        0.52843935        6.00000000
    29.80909462        0.53073506        6.00000000
    29.88112280        0.53303319        6.00000000
    29.95311618        0.53533374        6.00000000
    30.02507473        0.53763668        6.00000000
    30.09699846        0.53994199        6.00000000
    30.16888734        0.54224966        6.00000000
    30.24074135        0.54455967        6.00000000
    30.31256049        0.54687200        6.00000000
    30.38434473        0.54918664        6.00000000
    30.45609405        0.55150355        6.00000000
    30.52780842        0.55382274        6.00000000
    30.59948783        0.55614417        6.00000000
    30.67113225        0.55846782        6.00000000
    30.74274164        0.56079369        6.00000000
    30.81431599        0.56312176        6.00000000
    30.88585527        0.56545199        6.00000000
    30.95735944        0.56778438        6.00000000
    31.02882847        0.57011891        6.00000000
    31.10026233        0.57245556        6.00000000
    31.17166098        0.57479431        6.00000000
    31.24302438        0.57713514        6.00000000
    31.31435251        0.57947804        6.00000000
    31.38564531        0.58182298        6.00000000
    31.45690275        0.58416995        6.00000000
    31.52812479        0.58651893        6.00000000
    31.59931138        0.58886989        6.00000000
    31.67046247        0.59122283        6.00000000
    31.74157803        0.59357772        6.00000000
    31.81265801        0.59593455        6.00000000
    31.88370234        0.59829329        6.00000000
    31.95471099        0.60065393        6.00000000
    32.02568391        0.60301645        6.00000000
    32.09662103        0.60538083        6.00000000
    32.16752232        0.60774705        6.00000000
    32.23838770        0.61011509        6.00000000
    32.30921712        0.61248493        6.00000000
    32.38001053        0.61485657        6.00000000
    32.45076786        0.61722996        6.00000000
    32.52148906        0.61960511        6.00000000
    32.59217406        0.62198199        6.00000000
    32.66282280        0.62436057        6.00000000
    32.73343520        0.62674085        6.00000000
    32.80401122        0.62912280        6.00000000
    32.87455077        0.63150641        6.00000000
    32.94505379        0.63389165        6.00000000
    33.01552021        0.63627851        6.00000000
    33.08594996        0.63866697        6.00000000
    33.15634295        0.64105701        6.00000000
    33.22669913        0.64344860        6.00000000
    33.29701841        0.64584174        6.00000000
    33.36730072        0.64823640        6.00000000
    33.43754597        0.65063257        6.00000000
    33.50775408        0.65303022        6.00000000
    33.57792499        0.65542934        6.00000000
    33.64805860        0.65782990        6.00000000
    33.71815482        0.66023189        6.00000000
    33.78821358        0.66263529        6.00000000
    33.85823479        0.66504008        6.00000000
    33.92821836        0.66744625        6.00000000
    33.99816420        0.66985376        6.00000000
    34.06807221        0.67226261        6.00000000
    34.13794232        0.67467278        6.00000000
    34.20777441        0.67708424        6.00000000
    34.27756841        0.67949697        6.00000000
    34.34732421        0.68191097        6.00000000
    34.41704171        0.68432620        6.00000000
