#  Mach amont      Angle Choc en °  Theta Mach = 1 en °  Inverse Mach         Kp
     1.11000000       72.56896921       14.20775102       -0.14668248        0.36724698
     1.12000000       71.93494563       14.82289910       -0.15224974        0.38625420
     1.13000000       71.34276099       15.41199999       -0.15722930        0.40424941
     1.14000000       70.78803881       15.97790400       -0.16167649        0.42133751
     1.15000000       70.26712072       16.52297496       -0.16563985        0.43760848
     1.16000000       69.77692309       17.04917684       -0.16916205        0.45313982
     1.17000000       69.31481922       17.55815599       -0.17228089        0.46799883
     1.18000000       68.87853634       18.05132466       -0.17503027        0.48224448
     1.19000000       68.46608633       18.52991120       -0.17744079        0.49592882
     1.20000000       68.07572992       18.99497238       -0.17954002        0.50909782
     1.21000000       67.70593467       19.44742349       -0.18135293        0.52179225
     1.22000000       67.35531474       19.88810223       -0.18290252        0.53404879
     1.23000000       67.02263758       20.31773811       -0.18420968        0.54590016
     1.24000000       66.70680627       20.73696163       -0.18529347        0.55737562
     1.25000000       66.40680096       21.14637775       -0.18617161        0.56850187
     1.26000000       66.12170396       21.54651695       -0.18686035        0.57930291
     1.27000000       65.85069113       21.93783802       -0.18737453        0.58980035
     1.28000000       65.59298310       22.32079323       -0.18772807        0.60001405
     1.29000000       65.34786887       22.69578591       -0.18793375        0.60996203
     1.30000000       65.11471009       23.06315778       -0.18800332        0.61966053
     1.31000000       64.89288735       23.42326505       -0.18794781        0.62912466
     1.32000000       64.68183655       23.77641899       -0.18777739        0.63836814
     1.33000000       64.48104908       24.12288154       -0.18750141        0.64740338
     1.34000000       64.29001697       24.46294553       -0.18712870        0.65624207
     1.35000000       64.10829077       24.79684353       -0.18666736        0.66489471
     1.36000000       63.93544196       25.12480251       -0.18612493        0.67337104
     1.37000000       63.77105431       25.44705501       -0.18550845        0.68168011
     1.38000000       63.61476924       25.76376711       -0.18482440        0.68983005
     1.39000000       63.46620530       26.07516097       -0.18407888        0.69782865
     1.40000000       63.32503847       26.38138901       -0.18327749        0.70568285
     1.41000000       63.19094003       26.68262876       -0.18242549        0.71339924
     1.42000000       63.06360894       26.97903127       -0.18152773        0.72098384
     1.43000000       62.94275882       27.27074016       -0.18058875        0.72844224
     1.44000000       62.82811153       27.55790072       -0.17961274        0.73577965
     1.45000000       62.71941323       27.84063361       -0.17860360        0.74300087
     1.46000000       62.61641008       28.11907248       -0.17756497        0.75011040
     1.47000000       62.51887140       28.39332629       -0.17650022        0.75711238
     1.48000000       62.42657013       28.66350986       -0.17541247        0.76401071
     1.49000000       62.33928970       28.92973213       -0.17430461        0.77080900
     1.50000000       62.25683326       29.19208071       -0.17317936        0.77751058
     1.51000000       62.17898993       29.45067589       -0.17203917        0.78411869
     1.52000000       62.10559577       29.70557105       -0.17088642        0.79063612
     1.53000000       62.03645044       29.95688806       -0.16972319        0.79706576
     1.54000000       61.97139090       30.20469643       -0.16855148        0.80341012
     1.55000000       61.91025856       30.44906650       -0.16737314        0.80967158
     1.56000000       61.85288397       30.69009456       -0.16618984        0.81585248
     1.57000000       61.79912554       30.92783834       -0.16500315        0.82195488
     1.58000000       61.74884068       31.16236445       -0.16381454        0.82798078
     1.59000000       61.70188139       31.39375564       -0.16262530        0.83393211
     1.60000000       61.65811573       31.62207464       -0.16143666        0.83981063
     1.61000000       61.61743080       31.84735826       -0.16024979        0.84561793
     1.62000000       61.57968931       32.06969107       -0.15906569        0.85135567
     1.63000000       61.54477409       32.28912955       -0.15788530        0.85702535
     1.64000000       61.51257257       32.50572825       -0.15670949        0.86262837
     1.65000000       61.48298314       32.71952840       -0.15553908        0.86816604
     1.66000000       61.45589852       32.93058645       -0.15437480        0.87363963
     1.67000000       61.43121435       33.13895917       -0.15321729        0.87905040
     1.68000000       61.40883439       33.34469435       -0.15206713        0.88439949
     1.69000000       61.38866608       33.54783832       -0.15092489        0.88968800
     1.70000000       61.37062035       33.74843605       -0.14979106        0.89491699
     1.71000000       61.35461148       33.94653123       -0.14866607        0.90008744
     1.72000000       61.34055698       34.14216634       -0.14755033        0.90520033
     1.73000000       61.32837781       34.33538202       -0.14644421        0.91025658
     1.74000000       61.31799875       34.52621629       -0.14534801        0.91525706
     1.75000000       61.30934354       34.71471312       -0.14426202        0.92020264
     1.76000000       61.30234126       34.90091083       -0.14318647        0.92509416
     1.77000000       61.29692362       35.08484681       -0.14212158        0.92993239
     1.78000000       61.29302482       35.26655762       -0.14106753        0.93471811
     1.79000000       61.29058408       35.44607426       -0.14002451        0.93945204
     1.80000000       61.28953921       35.62343372       -0.13899264        0.94413491
     1.81000000       61.28983093       35.79867099       -0.13797203        0.94876742
     1.82000000       61.29140255       35.97181960       -0.13696275        0.95335025
     1.83000000       61.29419942       36.14291239       -0.13596489        0.95788405
     1.84000000       61.29816887       36.31198161       -0.13497848        0.96236947
     1.85000000       61.30326015       36.47905889       -0.13400357        0.96680714
     1.86000000       61.30942431       36.64417529       -0.13304016        0.97119767
     1.87000000       61.31661795       36.80735426       -0.13208828        0.97554162
     1.88000000       61.32480021       36.96861709       -0.13114797        0.97983954
     1.89000000       61.33391984       37.12800699       -0.13021913        0.98409206
     1.90000000       61.34393456       37.28555300       -0.12930173        0.98829975
     1.91000000       61.35480356       37.44128370       -0.12839572        0.99246317
     1.92000000       61.36650206       37.59519964       -0.12750116        0.99658270
     1.93000000       61.37898026       37.74735082       -0.12661790        1.00065900
     1.94000000       61.39219988       37.89776772       -0.12574584        1.00469260
     1.95000000       61.40613417       38.04646088       -0.12488496        1.00868394
     1.96000000       61.42075217       38.19345083       -0.12403522        1.01263349
     1.97000000       61.43601034       38.33878397       -0.12319642        1.01654186
     1.98000000       61.45188822       38.48246457       -0.12236857        1.02040942
     1.99000000       61.46835593       38.62451653       -0.12155155        1.02423665
     2.00000000       61.48537292       38.76498605       -0.12074517        1.02802414
     2.01000000       61.50293327       38.90385444       -0.11994951        1.03177213
     2.02000000       61.52099053       39.04118246       -0.11916429        1.03548129
     2.03000000       61.53952969       39.17697197       -0.11838948        1.03915195
     2.04000000       61.55852485       39.31124723       -0.11762497        1.04278457
     2.05000000       61.57794775       39.44403850       -0.11687059        1.04637963
     2.06000000       61.59778560       39.57534744       -0.11612631        1.04993747
     2.07000000       61.61800405       39.70521882       -0.11539191        1.05345864
     2.08000000       61.63859605       39.83364568       -0.11466738        1.05694341
     2.09000000       61.65952828       39.96067336       -0.11395250        1.06039234
     2.10000000       61.68079205       40.08630036       -0.11324722        1.06380572
     2.11000000       61.70236219       40.21055849       -0.11255138        1.06718403
     2.12000000       61.72422104       40.33346589       -0.11186485        1.07052768
     2.13000000       61.74635872       40.45502669       -0.11118758        1.07383696
     2.14000000       61.76874249       40.57529054       -0.11051930        1.07711246
     2.15000000       61.79138120       40.69422677       -0.10986009        1.08035427
