#   Theta paroi en °  Angle Choc en °        Kp           Inverse Mach       Mach amont       Mach aval
0.00000000  1.14599200  0.00000000  0.98000000 50.00000000 50.00000000
0.25736028  1.14865762  0.00007141  0.97966000 50.00000000 49.96123532
0.28854430  1.15238729  0.00008697  0.97959027 50.00000000 49.90724589
0.33006450  1.15930913  0.00010939  0.97949218 50.00000000 49.80780297
0.38265559  1.17155124  0.00014052  0.97936048 50.00000000 49.63424856
0.44512848  1.19124172  0.00018140  0.97919464 50.00000000 49.36097942
0.51724297  1.22050870  0.00023387  0.97899225 50.00000000 48.96707804
0.59979332  1.26148027  0.00030093  0.97874790 50.00000000 48.43739615
0.69412103  1.31628454  0.00038685  0.97845355 50.00000000 47.76247138
0.80178318  1.38704963  0.00049724  0.97809874 50.00000000 46.93712690
0.92440837  1.47590364  0.00063927  0.97767034 50.00000000 45.95829362
1.03856428  1.56475765  0.00078737  0.97724797 50.00000000 45.02885701
1.14708721  1.65361166  0.00094256  0.97682510 50.00000000 44.13816401
1.25155187  1.74246566  0.00110532  0.97639827 50.00000000 43.27905599
1.35294615  1.83131967  0.00127599  0.97596544 50.00000000 42.44668265
1.45191295  1.92017368  0.00145469  0.97552557 50.00000000 41.63773977
1.54891151  2.00902769  0.00164152  0.97507805 50.00000000 40.84996748
1.64429832  2.09788170  0.00183661  0.97462244 50.00000000 40.08181371
1.73831183  2.18673570  0.00203990  0.97415879 50.00000000 39.33220532
1.83117094  2.27558971  0.00225152  0.97368700 50.00000000 38.60039073
1.92302451  2.36444372  0.00247140  0.97320729 50.00000000 37.88583121
2.01401207  2.45329773  0.00269962  0.97271976 50.00000000 37.18812547
2.10424324  2.54215174  0.00293619  0.97222459 50.00000000 36.50695763
2.19380223  2.63100574  0.00318109  0.97172209 50.00000000 35.84206135
2.28276534  2.71985975  0.00343434  0.97121249 50.00000000 35.19319565
2.37119681  2.80871376  0.00369592  0.97069605 50.00000000 34.56012874
2.45915128  2.89756777  0.00396585  0.97017304 50.00000000 33.94262772
2.54667560  2.98642178  0.00424411  0.96964373 50.00000000 33.34045227
2.63381582  3.07527578  0.00453078  0.96910833 50.00000000 32.75335123
2.72060344  3.16412979  0.00482580  0.96856711 50.00000000 32.18106112
2.80706812  3.25298380  0.00512914  0.96802036 50.00000000 31.62330600
2.89323689  3.34183781  0.00544081  0.96746831 50.00000000 31.07979814
2.97913892  3.43069182  0.00576085  0.96691113 50.00000000 30.55023933
3.06479518  3.51954582  0.00608927  0.96634906 50.00000000 30.03432243
3.15021980  3.60839983  0.00642598  0.96578236 50.00000000 29.53173308
3.23543541  3.69725384  0.00677105  0.96521118 50.00000000 29.04215144
3.32045727  3.78610785  0.00712449  0.96463570 50.00000000 28.56525394
3.40529342  3.87496186  0.00748618  0.96405617 50.00000000 28.10071484
3.48996732  3.96381586  0.00785632  0.96347265 50.00000000 27.64820774
3.57448001  4.05266987  0.00823471  0.96288542 50.00000000 27.20740695
3.65884820  4.14152388  0.00862146  0.96229456 50.00000000 26.77798869
3.74307870  4.23037789  0.00901653  0.96170025 50.00000000 26.35963214
3.82718049  4.31923190  0.00941990  0.96110263 50.00000000 25.95202036
3.91116295  4.40808590  0.00983162  0.96050181 50.00000000 25.55484110
3.99503098  4.49693991  0.01025161  0.95989795 50.00000000 25.16778745
4.07879396  4.58579392  0.01067995  0.95929113 50.00000000 24.79055841
4.16245556  4.67464793  0.01111657  0.95868151 50.00000000 24.42285931
4.24602316  4.76350194  0.01156150  0.95806916 50.00000000 24.06440221
4.32950138  4.85235594  0.01201473  0.95745420 50.00000000 23.71490612
4.41289408  4.94120995  0.01247623  0.95683673 50.00000000 23.37409726
4.49620854  5.03006396  0.01294607  0.95621682 50.00000000 23.04170916
4.57944388  5.11891797  0.01342411  0.95559461 50.00000000 22.71748277
4.66261136  5.20777198  0.01391054  0.95497009 50.00000000 22.40116648
4.74570639  5.29662598  0.01440513  0.95434345 50.00000000 22.09251612
4.82873940  5.38547999  0.01490809  0.95371467 50.00000000 21.79129490
4.91170868  5.47433400  0.01541927  0.95308388 50.00000000 21.49727339
4.99461830  5.56318801  0.01593869  0.95245113 50.00000000 21.21022937
5.07747344  5.65204202  0.01646642  0.95181646 50.00000000 20.92994775
5.16027155  5.74089602  0.01700231  0.95117999 50.00000000 20.65622040
5.24302149  5.82975003  0.01754656  0.95054170 50.00000000 20.38884606
5.32572043  5.91860404  0.01809899  0.94990171 50.00000000 20.12763012
5.40837110  6.00745805  0.01865962  0.94926006 50.00000000 19.87238450
5.49097917  6.09631206  0.01922858  0.94861676 50.00000000 19.62292745
5.57354125  6.18516606  0.01980566  0.94797191 50.00000000 19.37908339
5.65606286  6.27402007  0.02039102  0.94732551 50.00000000 19.14068272
5.73854490  6.36287408  0.02098460  0.94667763 50.00000000 18.90756165
5.82098615  6.45172809  0.02158631  0.94602832 50.00000000 18.67956201
5.90339296  6.54058210  0.02219632  0.94537757 50.00000000 18.45653106
5.98576319  6.62943610  0.02281449  0.94472547 50.00000000 18.23832134
6.06809697  6.71829011  0.02344077  0.94407206 50.00000000 18.02479049
6.15040094  6.80714412  0.02407538  0.94341729 50.00000000 17.81580104
6.23267126  6.89599813  0.02471809  0.94276128 50.00000000 17.61122026
6.31490887  6.98485214  0.02536891  0.94210406 50.00000000 17.41092004
6.39712001  7.07370614  0.02602803  0.94144558 50.00000000 17.21477665
6.47930046  7.16256015  0.02669524  0.94078593 50.00000000 17.02267062
6.56145129  7.25141416  0.02737054  0.94012516 50.00000000 16.83448661
6.64357829  7.34026817  0.02805412  0.93946320 50.00000000 16.65011321
6.72567740  7.42912218  0.02874577  0.93880017 50.00000000 16.46944282
6.80774949  7.51797618  0.02944549  0.93813606 50.00000000 16.29237154
6.88979970  7.60683019  0.03015346  0.93747086 50.00000000 16.11879897
6.97182475  7.69568420  0.03086950  0.93680463 50.00000000 15.94862814
7.05382505  7.78453821  0.03159359  0.93613739 50.00000000 15.78176534
7.13580470  7.87339222  0.03232588  0.93546912 50.00000000 15.61812002
7.21776192  7.96224622  0.03306625  0.93479988 50.00000000 15.45760467
7.29969636  8.05110023  0.03381464  0.93412968 50.00000000 15.30013470
7.38161087  8.13995424  0.03457117  0.93345851 50.00000000 15.14562834
7.46350564  8.22880825  0.03533581  0.93278640 50.00000000 14.99400653
7.54537933  8.31766226  0.03610846  0.93211339 50.00000000 14.84519282
7.62723340  8.40651626  0.03688916  0.93143947 50.00000000 14.69911325
7.70907037  8.49537027  0.03767800  0.93076463 50.00000000 14.55569630
7.79088772  8.58422428  0.03847483  0.93008893 50.00000000 14.41487277
7.87268593  8.67307829  0.03927965  0.92941237 50.00000000 14.27657571
7.95446862  8.76193230  0.04009261  0.92873492 50.00000000 14.14074030
8.03623347  8.85078630  0.04091356  0.92805664 50.00000000 14.00730382
8.11798041  8.93964031  0.04174247  0.92737754 50.00000000 13.87620556
8.19971129  9.02849432  0.04257942  0.92669760 50.00000000 13.74738671
8.28142699  9.11734833  0.04342442  0.92601683 50.00000000 13.62079033
8.36312584  9.20620234  0.04427736  0.92533527 50.00000000 13.49636127
8.44480818  9.29505634  0.04513823  0.92465292 50.00000000 13.37404610
8.52647734  9.38391035  0.04600719  0.92396976 50.00000000 13.25379305
8.60813089  9.47276436  0.04688409  0.92328582 50.00000000 13.13555195
8.68976882  9.56161837  0.04776889  0.92260112 50.00000000 13.01927418
8.77139247  9.65047238  0.04866165  0.92191565 50.00000000 12.90491258
8.85300314  9.73932638  0.04956243  0.92122940 50.00000000 12.79242146
8.93459899  9.82818039  0.05047109  0.92054241 50.00000000 12.68175649
9.01618027  9.91703440  0.05138762  0.91985468 50.00000000 12.57287467
9.09774926 10.00588841  0.05231214  0.91916620 50.00000000 12.46573430
9.17930505 10.09474242  0.05324458  0.91847697 50.00000000 12.36029490
9.26084695 10.18359642  0.05418487  0.91778702 50.00000000 12.25651722
9.34237514 10.27245043  0.05513300  0.91709636 50.00000000 12.15436312
9.42389259 10.36130444  0.05608913  0.91640494 50.00000000 12.05379562
9.50539680 10.45015845  0.05705310  0.91571282 50.00000000 11.95477878
9.58688787 10.53901246  0.05802487  0.91501999 50.00000000 11.85727771
9.66836651 10.62786646  0.05900448  0.91432645 50.00000000 11.76125853
9.74983452 10.71672047  0.05999204  0.91363219 50.00000000 11.66668833
9.83128990 10.80557448  0.06098738  0.91293723 50.00000000 11.57353512
9.91273279 10.89442849  0.06199050  0.91224158 50.00000000 11.48176783
9.99416424 10.98328250  0.06300144  0.91154523 50.00000000 11.39135625
10.07558516 11.0721365   0.0640202   0.91084817 50.00000000 11.30227102
10.15699402 11.1609905   0.0650468   0.91015042 50.00000000 11.21448360
10.23839096 11.2498445   0.0660811   0.90945200 50.00000000 11.12796623
10.31977712 11.3386985   0.0671232   0.90875288 50.00000000 11.04269193
10.40115299 11.4275525   0.0681731   0.90805306 50.00000000 10.95863443
10.48251728 11.5164065   0.0692308   0.90735256 50.00000000 10.87576820
10.56387011 11.6052605   0.0702961   0.90665140 50.00000000 10.79406838
10.64521260 11.6941145   0.0713692   0.90594954 50.00000000 10.71351079
10.72654511 11.7829685   0.0724501   0.90524699 50.00000000 10.63407188
10.80786645 11.8718225   0.0735387   0.90454377 50.00000000 10.55572875
10.88917671 11.9606765   0.0746349   0.90383988 50.00000000 10.47845909
10.97047685 12.0495305   0.0757388   0.90313531 50.00000000 10.40224118
11.05176742 12.1383846   0.0768505   0.90243005 50.00000000 10.32705385
11.13304716 12.2272386   0.0779698   0.90172413 50.00000000 10.25287651
11.21431615 12.3160926   0.0790968   0.90101753 50.00000000 10.17968908
11.29557502 12.4049466   0.0802313   0.90031026 50.00000000 10.10747201
11.37682482 12.4938006   0.0813736   0.89960229 50.00000000 10.03620623
11.45806408 12.5826546   0.0825235   0.89889366 50.00000000  9.96587318
11.53929285 12.6715086   0.0836810   0.89818436 50.00000000  9.89645474
11.62051133 12.7603626   0.0848460   0.89747439 50.00000000  9.82793328
11.70172132 12.8492166   0.0860188   0.89676372 50.00000000  9.76029158
11.78292100 12.9380706   0.0871991   0.89605239 50.00000000  9.69351286
11.86411041 13.0269246   0.0883869   0.89534038 50.00000000  9.62758076
11.94528961 13.1157786   0.0895823   0.89462771 50.00000000  9.56247931
12.02646016 13.2046327   0.0907852   0.89391434 50.00000000  9.49819294
12.10762099 13.2934867   0.0919958   0.89320029 50.00000000  9.43470646
12.18877173 13.3823407   0.0932138   0.89248557 50.00000000  9.37200505
12.26991243 13.4711947   0.0944393   0.89177017 50.00000000  9.31007422
12.35104392 13.5600487   0.0956723   0.89105409 50.00000000  9.24889986
12.43216647 13.6489027   0.0969128   0.89033731 50.00000000  9.18846819
12.51327907 13.7377567   0.0981608   0.88961986 50.00000000  9.12876573
12.59438176 13.8266107   0.0994163   0.88890173 50.00000000  9.06977936
12.67547459 13.9154647   0.1006791   0.88818292 50.00000000  9.01149623
12.75655929 14.0043187   0.1019495   0.88746340 50.00000000  8.95390381
12.83763415 14.0931727   0.1032273   0.88674319 50.00000000  8.89698986
12.91869921 14.1820267   0.1045125   0.88602230 50.00000000  8.84074241
12.99975448 14.2708807   0.1058051   0.88530073 50.00000000  8.78514977
13.08080079 14.3597348   0.1071051   0.88457845 50.00000000  8.73020052
13.16183820 14.4485888   0.1084125   0.88385547 50.00000000  8.67588351
13.24286587 14.53744282  0.10972731  0.88313179 50.00000000  8.62218782
13.32388383 14.62629682  0.11104938  0.88240743 50.00000000  8.56910280
13.40489208 14.71515083  0.11237877  0.88168236 50.00000000  8.51661800
13.48589201 14.80400484  0.11371558  0.88095658 50.00000000  8.46472325
13.56688245 14.89285885  0.11505969  0.88023009 50.00000000  8.41340857
13.64786321 14.98171286  0.11641108  0.87950289 50.00000000  8.36266422
13.72883430 15.07056686  0.11776972  0.87877500 50.00000000  8.31248067
13.80979600 15.15942087  0.11913564  0.87804639 50.00000000  8.26284858
13.89074926 15.24827488  0.12050891  0.87731705 50.00000000  8.21375883
13.97169286 15.33712889  0.12188939  0.87658700 50.00000000  8.16520250
14.05262680 15.42598290  0.12327709  0.87585623 50.00000000  8.11717086
14.13355109 15.51483690  0.12467198  0.87512475 50.00000000  8.06965535
14.21446627 15.60369091  0.12607411  0.87439253 50.00000000  8.02264761
14.29537267 15.69254492  0.12748349  0.87365958 50.00000000  7.97613945
14.37626940 15.78139893  0.12890002  0.87292591 50.00000000  7.93012285
14.45715647 15.87025294  0.13032370  0.87219151 50.00000000  7.88458997
14.53803387 15.95910694  0.13175450  0.87145637 50.00000000  7.83953313
14.61890223 16.04796095  0.13319249  0.87072049 50.00000000  7.79494479
14.69976162 16.13681496  0.13463765  0.86998387 50.00000000  7.75081760
14.78061131 16.22566897  0.13608989  0.86924650 50.00000000  7.70714432
14.86145130 16.31452298  0.13754921  0.86850839 50.00000000  7.66391790
14.94228158 16.40337698  0.13901559  0.86776953 50.00000000  7.62113141
15.02310271 16.49223099  0.14048907  0.86702992 50.00000000  7.57877806
15.10391481 16.58108500  0.14196966  0.86628954 50.00000000  7.53685121
15.18471716 16.66993901  0.14345727  0.86554841 50.00000000  7.49534434
15.26550975 16.75879302  0.14495188  0.86480652 50.00000000  7.45425106
15.34629256 16.84764702  0.14645348  0.86406387 50.00000000  7.41356512
15.42706594 16.93650103  0.14796210  0.86332045 50.00000000  7.37328040
15.50783036 17.02535504  0.14947777  0.86257624 50.00000000  7.33339086
15.58858495 17.11420905  0.15100039  0.86183127 50.00000000  7.29389063
15.66932969 17.20306306  0.15252994  0.86108552 50.00000000  7.25477392
15.75006456 17.29191706  0.15406641  0.86033899 50.00000000  7.21603506
15.83078957 17.38077107  0.15560978  0.85959168 50.00000000  7.17766850
15.91150581 17.46962508  0.15716017  0.85884356 50.00000000  7.13966880
15.99221212 17.55847909  0.15871743  0.85809466 50.00000000  7.10203060
16.07290847 17.64733310  0.16028155  0.85734496 50.00000000  7.06474866
16.15359485 17.73618710  0.16185252  0.85659447 50.00000000  7.02781784
16.23427124 17.82504111  0.16343032  0.85584318 50.00000000  6.99123309
16.31493824 17.91389512  0.16501500  0.85509108 50.00000000  6.95498946
16.39559564 18.00274913  0.16660653  0.85433816 50.00000000  6.91908210
16.47624297 18.09160314  0.16820485  0.85358443 50.00000000  6.88350624
16.55688021 18.18045714  0.16980994  0.85282988 50.00000000  6.84825720
16.63750732 18.26931115  0.17142179  0.85207452 50.00000000  6.81333038
16.71812428 18.35816516  0.17304037  0.85131833 50.00000000  6.77872129
16.79873206 18.44701917  0.17466580  0.85056131 50.00000000  6.74442549
16.87932965 18.53587318  0.17629793  0.84980345 50.00000000  6.71043865
16.95991700 18.62472718  0.17793676  0.84904476 50.00000000  6.67675649
17.04049407 18.71358119  0.17958227  0.84828523 50.00000000  6.64337484
17.12106085 18.80243520  0.18123444  0.84752486 50.00000000  6.61028958
17.20161749 18.89128921  0.18289328  0.84676364 50.00000000  6.57749667
17.28216454 18.98014322  0.18455884  0.84600155 50.00000000  6.54499215
17.36270118 19.06899722  0.18623102  0.84523862 50.00000000  6.51277212
17.44322740 19.15785123  0.18790979  0.84447482 50.00000000  6.48083277
17.52374315 19.24670524  0.18959515  0.84371017 50.00000000  6.44917032
17.60424840 19.33555925  0.19128708  0.84294464 50.00000000  6.41778108
17.68474331 19.42441326  0.19298558  0.84217824 50.00000000  6.38666144
17.76522837 19.51326726  0.19469070  0.84141096 50.00000000  6.35580783
17.84570281 19.60212127  0.19640234  0.84064279 50.00000000  6.32521674
17.92616662 19.69097528  0.19812049  0.83987375 50.00000000  6.29488473
18.00661975 19.77982929  0.19984512  0.83910381 50.00000000  6.26480843
18.08706216 19.86868330  0.20157622  0.83833298 50.00000000  6.23498450
18.16749383 19.95753730  0.20331378  0.83756126 50.00000000  6.20540968
18.24791552 20.04639131  0.20505787  0.83678862 50.00000000  6.17608076
18.32832639 20.13524532  0.20680839  0.83601507 50.00000000  6.14699458
18.40872639 20.22409933  0.20856531  0.83524062 50.00000000  6.11814803
18.48911549 20.31295334  0.21032862  0.83446525 50.00000000  6.08953808
18.56949363 20.40180734  0.21209830  0.83368896 50.00000000  6.06116170
18.64986078 20.49066135  0.21387433  0.83291174 50.00000000  6.03301596
18.73021726 20.57951536  0.21565675  0.83213359 50.00000000  6.00509796
18.81056308 20.66836937  0.21744554  0.83135451 50.00000000  5.97740483
18.89089777 20.75722338  0.21924064  0.83057448 50.00000000  5.94993377
18.97122131 20.84607738  0.22104202  0.82979351 50.00000000  5.92268203
19.05153363 20.93493139  0.22284967  0.82901160 50.00000000  5.89564688
19.13183471 21.02378540  0.22466357  0.82822873 50.00000000  5.86882566
19.21212450 21.11263941  0.22648370  0.82744491 50.00000000  5.84221573
19.29240341 21.20149342  0.22831012  0.82666011 50.00000000  5.81581452
19.37267118 21.29034742  0.23014277  0.82587435 50.00000000  5.78961948
19.45292752 21.37920143  0.23198159  0.82508761 50.00000000  5.76362810
19.53317239 21.46805544  0.23382659  0.82429990 50.00000000  5.73783793
19.61340573 21.55690945  0.23567773  0.82351121 50.00000000  5.71224654
19.69362750 21.64576346  0.23753500  0.82272153 50.00000000  5.68685154
19.77383766 21.73461746  0.23939839  0.82193086 50.00000000  5.66165059
19.85403643 21.82347147  0.24126791  0.82113919 50.00000000  5.63664137
19.93422385 21.91232548  0.24314355  0.82034651 50.00000000  5.61182162
20.01439951 22.00117949  0.24502525  0.81955283 50.00000000  5.58718909
20.09456335 22.09003350  0.24691300  0.81875814 50.00000000  5.56274158
20.17471533 22.17888750  0.24880676  0.81796242 50.00000000  5.53847692
20.25485540 22.26774151  0.25070654  0.81716569 50.00000000  5.51439297
20.33498350 22.35659552  0.25261230  0.81636793 50.00000000  5.49048763
20.41509958 22.44544953  0.25452403  0.81556914 50.00000000  5.46675883
20.49520403 22.53430354  0.25644177  0.81476930 50.00000000  5.44320453
20.57529651 22.62315754  0.25836546  0.81396842 50.00000000  5.41982271
20.65537682 22.71201155  0.26029507  0.81316649 50.00000000  5.39661141
20.73544490 22.80086556  0.26223057  0.81236351 50.00000000  5.37356867
20.81550070 22.88971957  0.26417195  0.81155947 50.00000000  5.35069257
20.89554417 22.97857358  0.26611919  0.81075437 50.00000000  5.32798123
20.97557525 23.06742758  0.26807227  0.80994819 50.00000000  5.30543278
21.05559390 23.15628159  0.27003117  0.80914094 50.00000000  5.28304539
21.13560026 23.24513560  0.27199591  0.80833261 50.00000000  5.26081725
21.21559437 23.33398961  0.27396647  0.80752319 50.00000000  5.23874658
21.29557587 23.42284362  0.27594280  0.80671267 50.00000000  5.21683163
21.37554470 23.51169762  0.27792488  0.80590106 50.00000000  5.19507066
21.45550081 23.60055163  0.27991268  0.80508835 50.00000000  5.17346198
21.53544414 23.68940564  0.28190619  0.80427453 50.00000000  5.15200390
21.61537463 23.77825965  0.28390540  0.80345959 50.00000000  5.13069478
21.69529223 23.86711366  0.28591027  0.80264354 50.00000000  5.10953298
21.77519687 23.95596766  0.28792080  0.80182636 50.00000000  5.08851689
21.85508862 24.04482167  0.28993697  0.80100804 50.00000000  5.06764494
21.93496763 24.13367568  0.29195881  0.80018859 50.00000000  5.04691556
22.01483350 24.22252969  0.29398624  0.79936799 50.00000000  5.02632721
22.09468618 24.31138370  0.29601925  0.79854624 50.00000000  5.00587838
22.17452560 24.40023770  0.29805781  0.79772334 50.00000000  4.98556757
22.25435171 24.48909171  0.30010191  0.79689928 50.00000000  4.96539330
22.33416444 24.57794572  0.30215152  0.79607405 50.00000000  4.94535413
22.41396373 24.66679973  0.30420664  0.79524765 50.00000000  4.92544862
22.49374952 24.75565374  0.30626723  0.79442008 50.00000000  4.90567536
22.57352174 24.84450774  0.30833327  0.79359132 50.00000000  4.88603295
22.65328035 24.93336175  0.31040476  0.79276136 50.00000000  4.86652003
22.73302560 25.02221576  0.31248172  0.79193021 50.00000000  4.84713523
22.81275713 25.11106977  0.31456407  0.79109785 50.00000000  4.82787721
