#  Theta paroi en deg  Angle Choc en deg        Kp           Inverse Mach       Mach amont       Mach aval
     0.00000000       30.00000000        0.00000000        0.50000000        2.00000000        2.0000000
     2.63098018       30.00180000        0.01162364        0.49479602        2.00000000        1.99991838
     2.83832549       30.00431852        0.01321010        0.49408977        2.00000000        1.99980420
     3.13120123       30.00899259        0.01557718        0.49303774        2.00000000        1.99959232
     3.50494766       30.01725926        0.01880275        0.49160745        2.00000000        1.99921770
     3.93030583       30.03055556        0.02273920        0.48986696        2.00000000        1.99861547
     4.38275912       30.05031852        0.02722070        0.48789204        2.00000000        1.99772105
     4.84804238       30.07798519        0.03213057        0.48573612        2.00000000        1.99647034
     5.31921699       30.11499259        0.03740045        0.48343088        2.00000000        1.99479992
     5.79345546       30.16277778        0.04299576        0.48099287        2.00000000        1.99264735
     6.27010841       30.22277778        0.04890408        0.47842878        2.00000000        1.98995137
     6.66721351       30.28277778        0.05403821        0.47620895        2.00000000        1.98726292
     7.01221751       30.34277778        0.05865165        0.47422056        2.00000000        1.98458195
     7.32012544       30.40277778        0.06288708        0.47240017        2.00000000        1.98190837
     7.60010338       30.46277778        0.06683370        0.47070816        2.00000000        1.97924212
     7.85820099       30.52277778        0.07055148        0.46911787        2.00000000        1.97658313
     8.09863438       30.58277778        0.07408286        0.46761047        2.00000000        1.97393133
     8.32446997       30.64277778        0.07745916        0.46617206        2.00000000        1.97128665
     8.53801514       30.70277778        0.08070418        0.46479206        2.00000000        1.96864903
     8.74104812       30.76277778        0.08383649        0.46346224        2.00000000        1.96601840
     8.93497717       30.82277778        0.08687091        0.46217601        2.00000000        1.96339469
     9.12093276       30.88277778        0.08981945        0.46092805        2.00000000        1.96077785
     9.29984066       30.94277778        0.09269199        0.45971396        2.00000000        1.95816780
     9.47246596       31.00277778        0.09549679        0.45853009        2.00000000        1.95556449
     9.63945503       31.06277778        0.09824083        0.45737332        2.00000000        1.95296786
     9.80134972       31.12277778        0.10093002        0.45624104        2.00000000        1.95037784
     9.95861923       31.18277778        0.10356950        0.45513095        2.00000000        1.94779437
    10.11166375       31.24277778        0.10616367        0.45404109        2.00000000        1.94521740
    10.26083559       31.30277778        0.10871641        0.45296974        2.00000000        1.94264686
    10.40644020       31.36277778        0.11123111        0.45191539        2.00000000        1.94008270
    10.54874695       31.42277778        0.11371077        0.45087670        2.00000000        1.93752485
    10.68799509       31.48277778        0.11615805        0.44985248        2.00000000        1.93497327
    10.82439672       31.54277778        0.11857533        0.44884166        2.00000000        1.93242790
    10.95814363       31.60277778        0.12096477        0.44784329        2.00000000        1.92988868
    11.08940499       31.66277778        0.12332826        0.44685651        2.00000000        1.92735555
    11.21833571       31.72277778        0.12566756        0.44588054        2.00000000        1.92482847
    11.34507461       31.78277778        0.12798422        0.44491467        2.00000000        1.92230738
    11.46974925       31.84277778        0.13027970        0.44395826        2.00000000        1.91979222
    11.59247365       31.90277778        0.13255528        0.44301071        2.00000000        1.91728295
    11.71335515       31.96277778        0.13481219        0.44207150        2.00000000        1.91477951
    11.83248934       32.02277778        0.13705150        0.44114011        2.00000000        1.91228185
    11.94996615       32.08277778        0.13927426        0.44021609        2.00000000        1.90978993
    12.06586596       32.14277778        0.14148136        0.43929902        2.00000000        1.90730368
    12.18026491       32.20277778        0.14367368        0.43838852        2.00000000        1.90482307
    12.29323267       32.26277778        0.14585201        0.43748421        2.00000000        1.90234804
    12.40483570       32.32277778        0.14801712        0.43658575        2.00000000        1.89987855
    12.51513284       32.38277778        0.15016966        0.43569283        2.00000000        1.89741455
    12.62418040       32.44277778        0.15231029        0.43480516        2.00000000        1.89495599
    12.73203110       32.50277778        0.15443961        0.43392246        2.00000000        1.89250283
    12.83873472       32.56277778        0.15655819        0.43304447        2.00000000        1.89005501
    12.94433514       32.62277778        0.15866651        0.43217096        2.00000000        1.88761250
    13.04887720       32.68277778        0.16076512        0.43130169        2.00000000        1.88517525
    13.15239924       32.74277778        0.16285442        0.43043646        2.00000000        1.88274322
    13.25494156       32.80277778        0.16493489        0.42957504        2.00000000        1.88031636
    13.35653831       32.86277778        0.16700692        0.42871727        2.00000000        1.87789462
    13.45722317       32.92277778        0.16907089        0.42786296        2.00000000        1.87547798
    13.55702802       32.98277778        0.17112716        0.42701194        2.00000000        1.87306637
    13.65598277       33.04277778        0.17317607        0.42616405        2.00000000        1.87065977
    13.75411560       33.10277778        0.17521794        0.42531914        2.00000000        1.86825813
    13.85145398       33.16277778        0.17725309        0.42447706        2.00000000        1.86586141
    13.94802346       33.22277778        0.17928181        0.42363766        2.00000000        1.86346957
    14.04384669       33.28277778        0.18130433        0.42280084        2.00000000        1.86108257
    14.13894864       33.34277778        0.18332097        0.42196644        2.00000000        1.85870038
    14.23334894       33.40277778        0.18533192        0.42113437        2.00000000        1.85632294
    14.32707073       33.46277778        0.18733747        0.42030450        2.00000000        1.85395022
    14.42013166       33.52277778        0.18933779        0.41947673        2.00000000        1.85158220
    14.51255095       33.58277778        0.19133311        0.41865095        2.00000000        1.84921881
    14.60434791       33.64277778        0.19332365        0.41782707        2.00000000        1.84686004
    14.69553860       33.70277778        0.19530959        0.41700498        2.00000000        1.84450585
    14.78613936       33.76277778        0.19729110        0.41618460        2.00000000        1.84215619
    14.87616593       33.82277778        0.19926836        0.41536585        2.00000000        1.83981103
    14.96563328       33.88277778        0.20124154        0.41454863        2.00000000        1.83747034
    15.05455570       33.94277778        0.20321079        0.41373288        2.00000000        1.83513407
    15.14294681       34.00277778        0.20517627        0.41291850        2.00000000        1.83280221
    15.23082088       34.06277778        0.20713815        0.41210542        2.00000000        1.83047470
    15.31818948       34.12277778        0.20909653        0.41129359        2.00000000        1.82815153
    15.40506440       34.18277778        0.21105155        0.41048292        2.00000000        1.82583264
    15.49145782       34.24277778        0.21300334        0.40967335        2.00000000        1.82351802
    15.57738150       34.30277778        0.21495204        0.40886481        2.00000000        1.82120763
    15.66284440       34.36277778        0.21689773        0.40805726        2.00000000        1.81890143
    15.74785956       34.42277778        0.21884057        0.40725061        2.00000000        1.81659939
    15.83243400       34.48277778        0.22078062        0.40644483        2.00000000        1.81430149
    15.91658000       34.54277778        0.22271803        0.40563985        2.00000000        1.81200768
    16.00030475       34.60277778        0.22465285        0.40483562        2.00000000        1.80971795
    16.08361774       34.66277778        0.22658520        0.40403209        2.00000000        1.80743225
    16.16652854       34.72277778        0.22851518        0.40322920        2.00000000        1.80515056
    16.24904414       34.78277778        0.23044287        0.40242691        2.00000000        1.80287285
    16.33117272       34.84277778        0.23236833        0.40162518        2.00000000        1.80059909
    16.41292223       34.90277778        0.23429167        0.40082395        2.00000000        1.79832924
    16.49430090       34.96277778        0.23621297        0.40002318        2.00000000        1.79606329
    16.57531505       35.02277778        0.23813230        0.39922283        2.00000000        1.79380120
    16.65597172       35.08277778        0.24004972        0.39842286        2.00000000        1.79154294
    16.73627771       35.14277778        0.24196531        0.39762323        2.00000000        1.78928848
    16.81623953       35.20277778        0.24387913        0.39682390        2.00000000        1.78703780
    16.89586351       35.26277778        0.24579125        0.39602482        2.00000000        1.78479087
    16.97515573       35.32277778        0.24770173        0.39522597        2.00000000        1.78254766
    17.05412207       35.38277778        0.24961062        0.39442731        2.00000000        1.78030815
    17.13276821       35.44277778        0.25151799        0.39362880        2.00000000        1.77807230
    17.21110058       35.50277778        0.25342391        0.39283040        2.00000000        1.77584010
    17.28912371       35.56277778        0.25532842        0.39203208        2.00000000        1.77361151
    17.36684272       35.62277778        0.25723156        0.39123382        2.00000000        1.77138651
    17.44426258       35.68277778        0.25913338        0.39043558        2.00000000        1.76916508
    17.52138886       35.74277778        0.26103394        0.38963733        2.00000000        1.76694719
    17.59822639       35.80277778        0.26293330        0.38883904        2.00000000        1.76473281
    17.67477886       35.86277778        0.26483147        0.38804067        2.00000000        1.76252192
    17.75105155       35.92277778        0.26672851        0.38724221        2.00000000        1.76031450
    17.82704898       35.98277778        0.26862448        0.38644362        2.00000000        1.75811052
    17.90277415       36.04277778        0.27051938        0.38564488        2.00000000        1.75590995
    17.97823345       36.10277778        0.27241330        0.38484595        2.00000000        1.75371278
    18.05342840       36.16277778        0.27430622        0.38404682        2.00000000        1.75151898
    18.12836510       36.22277778        0.27619824        0.38324744        2.00000000        1.74932853
    18.20304526       36.28277778        0.27808932        0.38244783        2.00000000        1.74714140
    18.27747486       36.34277778        0.27997958        0.38164791        2.00000000        1.74495758
    18.35165533       36.40277778        0.28186897        0.38084770        2.00000000        1.74277703
    18.42559184       36.46277778        0.28375759        0.38004715        2.00000000        1.74059975
    18.49928693       36.52277778        0.28564542        0.37924626        2.00000000        1.73842570
    18.57274350       36.58277778        0.28753250        0.37844499        2.00000000        1.73625486
    18.64596658       36.64277778        0.28941890        0.37764332        2.00000000        1.73408721
    18.71895768       36.70277778        0.29130459        0.37684123        2.00000000        1.73192274
    18.79171998       36.76277778        0.29318962        0.37603870        2.00000000        1.72976141
    18.86425734       36.82277778        0.29507403        0.37523571        2.00000000        1.72760322
    18.93657245       36.88277778        0.29695783        0.37443224        2.00000000        1.72544814
    19.00866770       36.94277778        0.29884105        0.37362826        2.00000000        1.72329614
    19.08054596       37.00277778        0.30072369        0.37282377        2.00000000        1.72114721
    19.15221001       37.06277778        0.30260580        0.37201874        2.00000000        1.71900133
    19.22366300       37.12277778        0.30448740        0.37121315        2.00000000        1.71685848
    19.29490730       37.18277778        0.30636850        0.37040697        2.00000000        1.71471864
    19.36594520       37.24277778        0.30824913        0.36960020        2.00000000        1.71258179
    19.43677919       37.30277778        0.31012930        0.36879282        2.00000000        1.71044792
    19.50741172       37.36277778        0.31200903        0.36798481        2.00000000        1.70831699
    19.57784516       37.42277778        0.31388834        0.36717614        2.00000000        1.70618900
    19.64808183       37.48277778        0.31576725        0.36636681        2.00000000        1.70406392
    19.71812398       37.54277778        0.31764577        0.36555680        2.00000000        1.70194174
    19.78797381       37.60277778        0.31952392        0.36474608        2.00000000        1.69982244
    19.85763347       37.66277778        0.32140172        0.36393465        2.00000000        1.69770601
    19.92710505       37.72277778        0.32327918        0.36312249        2.00000000        1.69559241
    19.99639058       37.78277778        0.32515631        0.36230958        2.00000000        1.69348164
    20.06549205       37.84277778        0.32703313        0.36149590        2.00000000        1.69137368
    20.13441141       37.90277778        0.32890966        0.36068145        2.00000000        1.68926851
    20.20315055       37.96277778        0.33078590        0.35986620        2.00000000        1.68716612
    20.27171182       38.02277778        0.33266188        0.35905014        2.00000000        1.68506648
    20.34009677       38.08277778        0.33453760        0.35823325        2.00000000        1.68296959
    20.40830699       38.14277778        0.33641307        0.35741553        2.00000000        1.68087542
    20.47634420       38.20277778        0.33828831        0.35659695        2.00000000        1.67878396
    20.54421007       38.26277778        0.34016331        0.35577751        2.00000000        1.67669519
    20.61190664       38.32277778        0.34203810        0.35495718        2.00000000        1.67460909
    20.67943586       38.38277778        0.34391270        0.35413596        2.00000000        1.67252566
    20.74679860       38.44277778        0.34578710        0.35331383        2.00000000        1.67044488
    20.81399641       38.50277778        0.34766130        0.35249078        2.00000000        1.66836672
    20.88103157       38.56277778        0.34953533        0.35166679        2.00000000        1.66629118
    20.94790536       38.62277778        0.35140920        0.35084185        2.00000000        1.66421823
    21.01461865       38.68277778        0.35328290        0.35001595        2.00000000        1.66214788
    21.08117355       38.74277778        0.35515645        0.34918908        2.00000000        1.66008009
    21.14757160       38.80277778        0.35702986        0.34836121        2.00000000        1.65801485
    21.21381328       38.86277778        0.35890312        0.34753235        2.00000000        1.65595216
    21.27990119       38.92277778        0.36077627        0.34670248        2.00000000        1.65389199
    21.34583583       38.98277778        0.36264928        0.34587158        2.00000000        1.65183434
    21.41161850       39.04277778        0.36452216        0.34503964        2.00000000        1.64977918
    21.47725130       39.10277778        0.36639496        0.34420665        2.00000000        1.64772651
    21.54273409       39.16277778        0.36826761        0.34337261        2.00000000        1.64567631
    21.60807004       39.22277778        0.37014020        0.34253748        2.00000000        1.64362856
    21.67325830       39.28277778        0.37201266        0.34170129        2.00000000        1.64158326
    21.73830194       39.34277778        0.37388506        0.34086398        2.00000000        1.63954039
    21.80320036       39.40277778        0.37575734        0.34002558        2.00000000        1.63749993
    21.86795649       39.46277778        0.37762957        0.33918604        2.00000000        1.63546188
    21.93256962       39.52277778        0.37950169        0.33834539        2.00000000        1.63342622
    21.99704277       39.58277778        0.38137377        0.33750358        2.00000000        1.63139294
    22.06137530       39.64277778        0.38324575        0.33666064        2.00000000        1.62936202
    22.12556946       39.70277778        0.38511768        0.33581652        2.00000000        1.62733346
    22.18962572       39.76277778        0.38698953        0.33497123        2.00000000        1.62530724
    22.25354491       39.82277778        0.38886132        0.33412476        2.00000000        1.62328334
    22.31732904       39.88277778        0.39073306        0.33327708        2.00000000        1.62126176
    22.38097784       39.94277778        0.39260473        0.33242821        2.00000000        1.61924249
    22.44449306       40.00277778        0.39447636        0.33157811        2.00000000        1.61722551
    22.50787569       40.06277778        0.39634794        0.33072679        2.00000000        1.61521080
    22.57112596       40.12277778        0.39821945        0.32987423        2.00000000        1.61319837
    22.63424546       40.18277778        0.40009092        0.32902042        2.00000000        1.61118820
    22.69723517       40.24277778        0.40196235        0.32816535        2.00000000        1.60918027
    22.76009531       40.30277778        0.40383373        0.32730902        2.00000000        1.60717457
    22.82282683       40.36277778        0.40570505        0.32645141        2.00000000        1.60517110
    22.88543166       40.42277778        0.40757635        0.32559250        2.00000000        1.60316984
    22.94790956       40.48277778        0.40944761        0.32473230        2.00000000        1.60117079
    23.01026140       40.54277778        0.41131881        0.32387079        2.00000000        1.59917392
    23.07248802       40.60277778        0.41318996        0.32300797        2.00000000        1.59717923
    23.13459098       40.66277778        0.41506109        0.32214381        2.00000000        1.59518672
    23.19657042       40.72277778        0.41693218        0.32127832        2.00000000        1.59319636
    23.25842701       40.78277778        0.41880323        0.32041148        2.00000000        1.59120815
