#  Theta paroi en deg Angle Choc en deg       Kp           Inverse Mach       Mach amont       Mach aval
     0.00000000       30.00000000        0.00000000        0.50000000        2.00000000
     1.99899092       30.00180000        0.00739726        0.49668213        2.00000000        1.99991838
     2.39565193       30.00431852        0.01004032        0.49550182        2.00000000        1.99980420
     2.82953311       30.00899259        0.01326888        0.49406363        2.00000000        1.99959232
     3.30099822       30.01725926        0.01714639        0.49234145        2.00000000        1.99921770
     3.78912525       30.03055556        0.02153786        0.49039755        2.00000000        1.99861547
     4.28125530       30.05031852        0.02632925        0.48828434        2.00000000        1.99772105
     4.77208849       30.07798519        0.03145213        0.48603355        2.00000000        1.99647034
     5.26022879       30.11499259        0.03687174        0.48366176        2.00000000        1.99479992
     5.74611930       30.16277778        0.04257510        0.48117582        2.00000000        1.99264735
     6.23102509       30.22277778        0.04856336        0.47857637        2.00000000        1.98995137
     6.63323776       30.28277778        0.05374875        0.47633390        2.00000000        1.98726292
     6.98175075       30.34277778        0.05839836        0.47432957        2.00000000        1.98458195
     7.29223222       30.40277778        0.06266091        0.47249725        2.00000000        1.98190837
     7.57418957       30.46277778        0.06662876        0.47079591        2.00000000        1.97924212
     7.83386166       30.52277778        0.07036368        0.46919811        2.00000000        1.97658313
     8.07558141       30.58277778        0.07390926        0.46768449        2.00000000        1.97393133
     8.30249035       30.64277778        0.07729754        0.46624083        2.00000000        1.97128665
     8.51694479       30.70277778        0.08055282        0.46485635        2.00000000        1.96864903
     8.72076105       30.76277778        0.08369405        0.46352263        2.00000000        1.96601840
     8.91537117       30.82277778        0.08673629        0.46223300        2.00000000        1.96339469
     9.10192579       30.88277778        0.08969176        0.46098202        2.00000000        1.96077785
     9.28136454       30.94277778        0.09257049        0.45976524        2.00000000        1.95816780
     9.45446541       31.00277778        0.09538086        0.45857895        2.00000000        1.95556449
     9.62188046       31.06277778        0.09812994        0.45741999        2.00000000        1.95296786
     9.78416204       31.12277778        0.10082372        0.45628572        2.00000000        1.95037784
     9.94178242       31.18277778        0.10346739        0.45517381        2.00000000        1.94779437
    10.09514893       31.24277778        0.10606541        0.45408229        2.00000000        1.94521740
    10.24461540       31.30277778        0.10862170        0.45300940        2.00000000        1.94264686
    10.39049141       31.36277778        0.11113969        0.45195363        2.00000000        1.94008270
    10.53304944       31.42277778        0.11362240        0.45091362        2.00000000        1.93752485
    10.67253071       31.48277778        0.11607253        0.44988817        2.00000000        1.93497327
    10.80914983       31.54277778        0.11849247        0.44887621        2.00000000        1.93242790
    10.94309868       31.60277778        0.12088439        0.44787677        2.00000000        1.92988868
    11.07454955       31.66277778        0.12325022        0.44688898        2.00000000        1.92735555
    11.20365774       31.72277778        0.12559171        0.44591207        2.00000000        1.92482847
    11.33056384       31.78277778        0.12791045        0.44494531        2.00000000        1.92230738
    11.45539546       31.84277778        0.13020788        0.44398805        2.00000000        1.91979222
    11.57826889       31.90277778        0.13248532        0.44303972        2.00000000        1.91728295
    11.69929039       31.96277778        0.13474398        0.44209975        2.00000000        1.91477951
    11.81855732       32.02277778        0.13698496        0.44116765        2.00000000        1.91228185
    11.93615918       32.08277778        0.13920929        0.44024296        2.00000000        1.90978993
    12.05217837       32.14277778        0.14141789        0.43932525        2.00000000        1.90730368
    12.16669098       32.20277778        0.14361165        0.43841413        2.00000000        1.90482307
    12.27976746       32.26277778        0.14579136        0.43750923        2.00000000        1.90234804
    12.39147310       32.32277778        0.14795776        0.43661021        2.00000000        1.89987855
    12.50186858       32.38277778        0.15011156        0.43571676        2.00000000        1.89741455
    12.61101040       32.44277778        0.15225339        0.43482858        2.00000000        1.89495599
    12.71895124       32.50277778        0.15438386        0.43394539        2.00000000        1.89250283
    12.82574033       32.56277778        0.15650353        0.43306694        2.00000000        1.89005501
    12.93142373       32.62277778        0.15861292        0.43219298        2.00000000        1.88761250
    13.03604459       32.68277778        0.16071253        0.43132328        2.00000000        1.88517525
    13.13964343       32.74277778        0.16280282        0.43045762        2.00000000        1.88274322
    13.24225834       32.80277778        0.16488423        0.42959582        2.00000000        1.88031636
    13.34392515       32.86277778        0.16695717        0.42873766        2.00000000        1.87789462
    13.44467764       32.92277778        0.16902201        0.42788298        2.00000000        1.87547798
    13.54454767       32.98277778        0.17107912        0.42703161        2.00000000        1.87306637
    13.64356536       33.04277778        0.17312885        0.42618337        2.00000000        1.87065977
    13.74175916       33.10277778        0.17517151        0.42533812        2.00000000        1.86825813
    13.83915605       33.16277778        0.17720742        0.42449572        2.00000000        1.86586141
    13.93578156       33.22277778        0.17923686        0.42365602        2.00000000        1.86346957
    14.03165994       33.28277778        0.18126011        0.42281889        2.00000000        1.86108257
    14.12681420       33.34277778        0.18327743        0.42198421        2.00000000        1.85870038
    14.22126623       33.40277778        0.18528906        0.42115185        2.00000000        1.85632294
    14.31503683       33.46277778        0.18729524        0.42032171        2.00000000        1.85395022
    14.40814584       33.52277778        0.18929619        0.41949368        2.00000000        1.85158220
    14.50061214       33.58277778        0.19129213        0.41866764        2.00000000        1.84921881
    14.59245375       33.64277778        0.19328326        0.41784351        2.00000000        1.84686004
    14.68368787       33.70277778        0.19526976        0.41702119        2.00000000        1.84450585
    14.77433093       33.76277778        0.19725183        0.41620058        2.00000000        1.84215619
    14.86439864       33.82277778        0.19922963        0.41538160        2.00000000        1.83981103
    14.95390602       33.88277778        0.20120334        0.41456416        2.00000000        1.83747034
    15.04286746       33.94277778        0.20317311        0.41374819        2.00000000        1.83513407
    15.13129673       34.00277778        0.20513910        0.41293360        2.00000000        1.83280221
    15.21920705       34.06277778        0.20710145        0.41212033        2.00000000        1.83047470
    15.30661107       34.12277778        0.20906030        0.41130829        2.00000000        1.82815153
    15.39352098       34.18277778        0.21101578        0.41049743        2.00000000        1.82583264
    15.47994842       34.24277778        0.21296803        0.40968767        2.00000000        1.82351802
    15.56590463       34.30277778        0.21491715        0.40887896        2.00000000        1.82120763
    15.65140039       34.36277778        0.21686329        0.40807122        2.00000000        1.81890143
    15.73644608       34.42277778        0.21880653        0.40726441        2.00000000        1.81659939
    15.82105168       34.48277778        0.22074700        0.40645846        2.00000000        1.81430149
    15.90522680       34.54277778        0.22268479        0.40565331        2.00000000        1.81200768
    15.98898070       34.60277778        0.22462000        0.40484892        2.00000000        1.80971795
    16.07232233       34.66277778        0.22655273        0.40404523        2.00000000        1.80743225
    16.15526027       34.72277778        0.22848308        0.40324219        2.00000000        1.80515056
    16.23780284       34.78277778        0.23041112        0.40243976        2.00000000        1.80287285
    16.31995805       34.84277778        0.23233695        0.40163788        2.00000000        1.80059909
    16.40173364       34.90277778        0.23426064        0.40083651        2.00000000        1.79832924
    16.48313710       34.96277778        0.23618227        0.40003560        2.00000000        1.79606329
    16.56417564       35.02277778        0.23810192        0.39923512        2.00000000        1.79380120
    16.64485624       35.08277778        0.24001966        0.39843502        2.00000000        1.79154294
    16.72518567       35.14277778        0.24193556        0.39763526        2.00000000        1.78928848
    16.80517046       35.20277778        0.24384969        0.39683580        2.00000000        1.78703780
    16.88481693       35.26277778        0.24576211        0.39603660        2.00000000        1.78479087
    16.96413122       35.32277778        0.24767289        0.39523762        2.00000000        1.78254766
    17.04311925       35.38277778        0.24958208        0.39443884        2.00000000        1.78030815
    17.12178677       35.44277778        0.25148974        0.39364021        2.00000000        1.77807230
    17.20013936       35.50277778        0.25339593        0.39284170        2.00000000        1.77584010
    17.27818241       35.56277778        0.25530070        0.39204328        2.00000000        1.77361151
    17.35592116       35.62277778        0.25720411        0.39124491        2.00000000        1.77138651
    17.43336071       35.68277778        0.25910620        0.39044656        2.00000000        1.76916508
    17.51050597       35.74277778        0.26100702        0.38964820        2.00000000        1.76694719
    17.58736175       35.80277778        0.26290662        0.38884981        2.00000000        1.76473281
    17.66393268       35.86277778        0.26480504        0.38805134        2.00000000        1.76252192
    17.74022329       35.92277778        0.26670233        0.38725278        2.00000000        1.76031450
    17.81623796       35.98277778        0.26859853        0.38645409        2.00000000        1.75811052
    17.89198097       36.04277778        0.27049367        0.38565525        2.00000000        1.75590995
    17.96745645       36.10277778        0.27238781        0.38485624        2.00000000        1.75371278
    18.04266844       36.16277778        0.27428097        0.38405701        2.00000000        1.75151898
    18.11762086       36.22277778        0.27617319        0.38325756        2.00000000        1.74932853
    18.19231753       36.28277778        0.27806451        0.38245784        2.00000000        1.74714140
    18.26676216       36.34277778        0.27995496        0.38165785        2.00000000        1.74495758
    18.34095836       36.40277778        0.28184458        0.38085755        2.00000000        1.74277703
    18.41490965       36.46277778        0.28373339        0.38005693        2.00000000        1.74059975
    18.48861947       36.52277778        0.28562142        0.37925595        2.00000000        1.73842570
    18.56209114       36.58277778        0.28750871        0.37845460        2.00000000        1.73625486
    18.63532792       36.64277778        0.28939529        0.37765285        2.00000000        1.73408721
    18.70833298       36.70277778        0.29128118        0.37685068        2.00000000        1.73192274
    18.78110941       36.76277778        0.29316640        0.37604808        2.00000000        1.72976141
    18.85366021       36.82277778        0.29505099        0.37524502        2.00000000        1.72760322
    18.92598833       36.88277778        0.29693497        0.37444147        2.00000000        1.72544814
    18.99809663       36.94277778        0.29881837        0.37363743        2.00000000        1.72329614
    19.06998790       37.00277778        0.30070119        0.37283286        2.00000000        1.72114721
    19.14166487       37.06277778        0.30258348        0.37202776        2.00000000        1.71900133
    19.21313021       37.12277778        0.30446525        0.37122210        2.00000000        1.71685848
    19.28438649       37.18277778        0.30634651        0.37041586        2.00000000        1.71471864
    19.35543626       37.24277778        0.30822730        0.36960903        2.00000000        1.71258179
    19.42628200       37.30277778        0.31010763        0.36880158        2.00000000        1.71044792
    19.49692612       37.36277778        0.31198752        0.36799350        2.00000000        1.70831699
    19.56737098       37.42277778        0.31386699        0.36718478        2.00000000        1.70618900
    19.63761889       37.48277778        0.31574605        0.36637539        2.00000000        1.70406392
    19.70767210       37.54277778        0.31762472        0.36556531        2.00000000        1.70194174
    19.77753281       37.60277778        0.31950302        0.36475454        2.00000000        1.69982244
    19.84720318       37.66277778        0.32138097        0.36394305        2.00000000        1.69770601
    19.91668530       37.72277778        0.32325857        0.36313083        2.00000000        1.69559241
    19.98598125       37.78277778        0.32513585        0.36231786        2.00000000        1.69348164
    20.05509301       37.84277778        0.32701282        0.36150413        2.00000000        1.69137368
    20.12402258       37.90277778        0.32888949        0.36068962        2.00000000        1.68926851
    20.19277185       37.96277778        0.33076587        0.35987432        2.00000000        1.68716612
    20.26134273       38.02277778        0.33264198        0.35905821        2.00000000        1.68506648
    20.32973705       38.08277778        0.33451783        0.35824127        2.00000000        1.68296959
    20.39795661       38.14277778        0.33639343        0.35742349        2.00000000        1.68087542
    20.46600317       38.20277778        0.33826879        0.35660487        2.00000000        1.67878396
    20.53387847       38.26277778        0.34014393        0.35578537        2.00000000        1.67669519
    20.60158419       38.32277778        0.34201885        0.35496500        2.00000000        1.67460909
    20.66912198       38.38277778        0.34389356        0.35414373        2.00000000        1.67252566
    20.73649347       38.44277778        0.34576808        0.35332155        2.00000000        1.67044488
    20.80370023       38.50277778        0.34764241        0.35249845        2.00000000        1.66836672
    20.87074382       38.56277778        0.34951656        0.35167442        2.00000000        1.66629118
    20.93762578       38.62277778        0.35139054        0.35084944        2.00000000        1.66421823
    21.00434758       38.68277778        0.35326436        0.35002349        2.00000000        1.66214788
    21.07091067       38.74277778        0.35513803        0.34919658        2.00000000        1.66008009
    21.13731651       38.80277778        0.35701154        0.34836867        2.00000000        1.65801485
    21.20356648       38.86277778        0.35888492        0.34753977        2.00000000        1.65595216
    21.26966196       38.92277778        0.36075817        0.34670985        2.00000000        1.65389199
    21.33560430       38.98277778        0.36263129        0.34587891        2.00000000        1.65183434
    21.40139481       39.04277778        0.36450429        0.34504693        2.00000000        1.64977918
    21.46703480       39.10277778        0.36637717        0.34421391        2.00000000        1.64772651
    21.53252552       39.16277778        0.36824995        0.34337982        2.00000000        1.64567631
    21.59786822       39.22277778        0.37012262        0.34254466        2.00000000        1.64362856
    21.66306412       39.28277778        0.37199520        0.34170842        2.00000000        1.64158326
    21.72811442       39.34277778        0.37386768        0.34087108        2.00000000        1.63954039
    21.79302029       39.40277778        0.37574008        0.34003263        2.00000000        1.63749993
    21.85778288       39.46277778        0.37761239        0.33919307        2.00000000        1.63546188
    21.92240332       39.52277778        0.37948462        0.33835238        2.00000000        1.63342622
    21.98688271       39.58277778        0.38135678        0.33751054        2.00000000        1.63139294
    22.05122215       39.64277778        0.38322886        0.33666755        2.00000000        1.62936202
    22.11542268       39.70277778        0.38510087        0.33582340        2.00000000        1.62733346
    22.17948537       39.76277778        0.38697282        0.33497808        2.00000000        1.62530724
    22.24341124       39.82277778        0.38884470        0.33413157        2.00000000        1.62328334
    22.30720129       39.88277778        0.39071652        0.33328387        2.00000000        1.62126176
    22.37085651       39.94277778        0.39258829        0.33243496        2.00000000        1.61924249
    22.43437788       40.00277778        0.39446000        0.33158483        2.00000000        1.61722551
    22.49776633       40.06277778        0.39633165        0.33073348        2.00000000        1.61521080
    22.56102282       40.12277778        0.39820326        0.32988089        2.00000000        1.61319837
    22.62414824       40.18277778        0.40007481        0.32902705        2.00000000        1.61118820
    22.68714351       40.24277778        0.40194632        0.32817195        2.00000000        1.60918027
    22.75000951       40.30277778        0.40381778        0.32731559        2.00000000        1.60717457
    22.81274710       40.36277778        0.40568920        0.32645795        2.00000000        1.60517110
    22.87535715       40.42277778        0.40756057        0.32559902        2.00000000        1.60316984
    22.93784047       40.48277778        0.40943189        0.32473879        2.00000000        1.60117079
    23.00019790       40.54277778        0.41130318        0.32387725        2.00000000        1.59917392
    23.06243024       40.60277778        0.41317442        0.32301439        2.00000000        1.59717923
    23.12453829       40.66277778        0.41504562        0.32215021        2.00000000        1.59518672
    23.18652282       40.72277778        0.41691678        0.32128469        2.00000000        1.59319636
    23.24838459       40.78277778        0.41878789        0.32041783        2.00000000        1.59120815
