#  Theta paroi en deg Angle Choc en deg       Kp           Inverse Mach       Mach amont       Mach aval
     0.00000000       26.51477463        0.00000000        0.55357143        2.24000000
     1.89340730       26.51667919        0.00644991        0.55070078        2.24000000        2.23990068
     2.27616025       26.51934400        0.00878998        0.54966600        2.24000000        2.23976174
     2.69165831       26.52428958        0.01162733        0.54841598        2.24000000        2.23950393
     3.14158059       26.53303643        0.01502167        0.54692716        2.24000000        2.23904813
     3.60678040       26.54710507        0.01885868        0.54525262        2.24000000        2.23831547
     4.07578961       26.56801601        0.02304329        0.54343634        2.24000000        2.23722754
     4.54399417       26.59728975        0.02752056        0.54150421        2.24000000        2.23570661
     5.01039822       26.63644681        0.03226503        0.53946903        2.24000000        2.23367601
     5.47569696       26.68700770        0.03727027        0.53733521        2.24000000        2.23106042
     5.94133105       26.75049292        0.04254230        0.53510188        2.24000000        2.22778637
     6.32867242       26.81397815        0.04712324        0.53317274        2.24000000        2.22452346
     6.66519637       26.87746338        0.05124431        0.53144605        2.24000000        2.22127156
     6.96574280       26.94094860        0.05503405        0.52986534        2.24000000        2.21803056
     7.23931311       27.00443383        0.05857218        0.52839557        2.24000000        2.21480032
     7.49181235       27.06791905        0.06191195        0.52701336        2.24000000        2.21158073
     7.72734058       27.13140428        0.06509092        0.52570226        2.24000000        2.20837166
     7.94886997       27.19488950        0.06813663        0.52445016        2.24000000        2.20517298
     8.15862940       27.25837473        0.07107000        0.52324791        2.24000000        2.20198459
     8.35833666       27.32185995        0.07390729        0.52208835        2.24000000        2.19880637
     8.54934596       27.38534518        0.07666144        0.52096582        2.24000000        2.19563820
     8.73274531       27.44883040        0.07934290        0.51987573        2.24000000        2.19247997
     8.90942304       27.51231563        0.08196029        0.51881429        2.24000000        2.18933157
     9.08011463       27.57580085        0.08452079        0.51777835        2.24000000        2.18619288
     9.24543639       27.63928608        0.08703041        0.51676527        2.24000000        2.18306381
     9.40591040       27.70277131        0.08949432        0.51577278        2.24000000        2.17994424
     9.56198302       27.76625653        0.09191691        0.51479894        2.24000000        2.17683407
     9.71403912       27.82974176        0.09430202        0.51384206        2.24000000        2.17373319
     9.86241306       27.89322698        0.09665298        0.51290067        2.24000000        2.17064151
    10.00739735       27.95671221        0.09897271        0.51197349        2.24000000        2.16755893
    10.14924942       28.02019743        0.10126379        0.51105937        2.24000000        2.16448533
    10.28819716       28.08368266        0.10352851        0.51015729        2.24000000        2.16142064
    10.42444328       28.14716788        0.10576891        0.50926635        2.24000000        2.15836475
    10.55816903       28.21065311        0.10798683        0.50838575        2.24000000        2.15531756
    10.68953713       28.27413833        0.11018391        0.50751474        2.24000000        2.15227898
    10.81869427       28.33762356        0.11236163        0.50665266        2.24000000        2.14924893
    10.94577321       28.40110878        0.11452134        0.50579892        2.24000000        2.14622730
    11.07089445       28.46459401        0.11666427        0.50495296        2.24000000        2.14321401
    11.19416780       28.52807923        0.11879152        0.50411429        2.24000000        2.14020898
    11.31569360       28.59156446        0.12090413        0.50328245        2.24000000        2.13721211
    11.43556378       28.65504969        0.12300302        0.50245701        2.24000000        2.13422332
    11.55386281       28.71853491        0.12508905        0.50163759        2.24000000        2.13124252
    11.67066849       28.78202014        0.12716302        0.50082382        2.24000000        2.12826963
    11.78605267       28.84550536        0.12922565        0.50001539        2.24000000        2.12530457
    11.90008181       28.90899059        0.13127763        0.49921197        2.24000000        2.12234726
    12.01281757       28.97247581        0.13331958        0.49841329        2.24000000        2.11939761
    12.12431722       29.03596104        0.13535208        0.49761907        2.24000000        2.11645556
    12.23463407       29.09944626        0.13737567        0.49682907        2.24000000        2.11352101
    12.34381785       29.16293149        0.13939087        0.49604305        2.24000000        2.11059389
    12.45191502       29.22641671        0.14139813        0.49526079        2.24000000        2.10767414
    12.55896903       29.28990194        0.14339790        0.49448210        2.24000000        2.10476166
    12.66502064       29.35338716        0.14539059        0.49370678        2.24000000        2.10185639
    12.77010805       29.41687239        0.14737660        0.49293464        2.24000000        2.09895826
    12.87426721       29.48035762        0.14935627        0.49216552        2.24000000        2.09606720
    12.97753194       29.54384284        0.15132995        0.49139925        2.24000000        2.09318313
    13.07993410       29.60732807        0.15329797        0.49063569        2.24000000        2.09030598
    13.18150376       29.67081329        0.15526062        0.48987469        2.24000000        2.08743569
    13.28226932       29.73429852        0.15721819        0.48911611        2.24000000        2.08457218
    13.38225766       29.79778374        0.15917094        0.48835983        2.24000000        2.08171540
    13.48149420       29.86126897        0.16111913        0.48760571        2.24000000        2.07886527
    13.58000304       29.92475419        0.16306301        0.48685366        2.24000000        2.07602173
    13.67780707       29.98823942        0.16500279        0.48610354        2.24000000        2.07318471
    13.77492797       30.05172464        0.16693869        0.48535527        2.24000000        2.07035416
    13.87138642       30.11520987        0.16887091        0.48460873        2.24000000        2.06753000
    13.96720204       30.17869509        0.17079966        0.48386383        2.24000000        2.06471218
    14.06239354       30.24218032        0.17272510        0.48312049        2.24000000        2.06190064
    14.15697873       30.30566555        0.17464742        0.48237860        2.24000000        2.05909531
    14.25097462       30.36915077        0.17656679        0.48163810        2.24000000        2.05629614
    14.34439743       30.43263600        0.17848335        0.48089889        2.24000000        2.05350306
    14.43726267       30.49612122        0.18039726        0.48016090        2.24000000        2.05071603
    14.52958516       30.55960645        0.18230866        0.47942406        2.24000000        2.04793498
    14.62137907       30.62309167        0.18421769        0.47868830        2.24000000        2.04515986
    14.71265797       30.68657690        0.18612448        0.47795354        2.24000000        2.04239061
    14.80343488       30.75006212        0.18802914        0.47721973        2.24000000        2.03962717
    14.89372223       30.81354735        0.18993181        0.47648679        2.24000000        2.03686950
    14.98353201       30.87703257        0.19183259        0.47575468        2.24000000        2.03411754
    15.07287566       30.94051780        0.19373159        0.47502332        2.24000000        2.03137123
    15.16176423       31.00400302        0.19562891        0.47429267        2.24000000        2.02863053
    15.25020828       31.06748825        0.19752465        0.47356267        2.24000000        2.02589538
    15.33821801       31.13097347        0.19941891        0.47283327        2.24000000        2.02316574
    15.42580320       31.19445870        0.20131177        0.47210441        2.24000000        2.02044154
    15.51297328       31.25794393        0.20320333        0.47137606        2.24000000        2.01772275
    15.59973733       31.32142915        0.20509366        0.47064815        2.24000000        2.01500932
    15.68610408       31.38491438        0.20698285        0.46992065        2.24000000        2.01230119
    15.77208196       31.44839960        0.20887096        0.46919351        2.24000000        2.00959832
    15.85767911       31.51188483        0.21075808        0.46846669        2.24000000        2.00690066
    15.94290335       31.57537005        0.21264426        0.46774015        2.24000000        2.00420817
    16.02776227       31.63885528        0.21452959        0.46701385        2.24000000        2.00152080
    16.11226316       31.70234050        0.21641412        0.46628774        2.24000000        1.99883851
    16.19641310       31.76582573        0.21829792        0.46556179        2.24000000        1.99616124
    16.28021889       31.82931095        0.22018104        0.46483597        2.24000000        1.99348896
    16.36368715       31.89279618        0.22206354        0.46411024        2.24000000        1.99082163
    16.44682424       31.95628140        0.22394547        0.46338455        2.24000000        1.98815920
    16.52963635       32.01976663        0.22582689        0.46265889        2.24000000        1.98550162
    16.61212945       32.08325186        0.22770785        0.46193322        2.24000000        1.98284887
    16.69430933       32.14673708        0.22958840        0.46120750        2.24000000        1.98020088
    16.77618159       32.21022231        0.23146858        0.46048171        2.24000000        1.97755764
    16.85775167       32.27370753        0.23334843        0.45975581        2.24000000        1.97491909
    16.93902484       32.33719276        0.23522801        0.45902978        2.24000000        1.97228519
    17.02000619       32.40067798        0.23710734        0.45830358        2.24000000        1.96965591
    17.10070068       32.46416321        0.23898648        0.45757719        2.24000000        1.96703121
    17.18111312       32.52764843        0.24086545        0.45685058        2.24000000        1.96441104
    17.26124816       32.59113366        0.24274430        0.45612373        2.24000000        1.96179538
    17.34111035       32.65461888        0.24462306        0.45539660        2.24000000        1.95918418
    17.42070408       32.71810411        0.24650177        0.45466918        2.24000000        1.95657741
    17.50003361       32.78158933        0.24838045        0.45394143        2.24000000        1.95397504
    17.57910309       32.84507456        0.25025914        0.45321334        2.24000000        1.95137701
    17.65791658       32.90855979        0.25213786        0.45248489        2.24000000        1.94878331
    17.73647799       32.97204501        0.25401666        0.45175603        2.24000000        1.94619390
    17.81479113       33.03553024        0.25589554        0.45102677        2.24000000        1.94360873
    17.89285971       33.09901546        0.25777455        0.45029706        2.24000000        1.94102778
    17.97068736       33.16250069        0.25965371        0.44956690        2.24000000        1.93845102
    18.04827758       33.22598591        0.26153304        0.44883626        2.24000000        1.93587840
    18.12563379       33.28947114        0.26341256        0.44810512        2.24000000        1.93330990
    18.20275933       33.35295636        0.26529231        0.44737345        2.24000000        1.93074549
    18.27965745       33.41644159        0.26717229        0.44664124        2.24000000        1.92818513
    18.35633130       33.47992681        0.26905254        0.44590848        2.24000000        1.92562879
    18.43278397       33.54341204        0.27093306        0.44517513        2.24000000        1.92307644
    18.50901845       33.60689726        0.27281389        0.44444119        2.24000000        1.92052804
    18.58503768       33.67038249        0.27469504        0.44370662        2.24000000        1.91798358
    18.66084451       33.73386771        0.27657652        0.44297142        2.24000000        1.91544302
    18.73644173       33.79735294        0.27845836        0.44223557        2.24000000        1.91290632
    18.81183204       33.86083817        0.28034057        0.44149905        2.24000000        1.91037346
    18.88701812       33.92432339        0.28222317        0.44076184        2.24000000        1.90784442
    18.96200252       33.98780862        0.28410617        0.44002392        2.24000000        1.90531915
    19.03678778       34.05129384        0.28598959        0.43928529        2.24000000        1.90279764
    19.11137636       34.11477907        0.28787344        0.43854591        2.24000000        1.90027986
    19.18577067       34.17826429        0.28975773        0.43780578        2.24000000        1.89776577
    19.25997305       34.24174952        0.29164248        0.43706488        2.24000000        1.89525535
    19.33398581       34.30523474        0.29352770        0.43632320        2.24000000        1.89274858
    19.40781117       34.36871997        0.29541340        0.43558071        2.24000000        1.89024542
    19.48145134       34.43220519        0.29729960        0.43483741        2.24000000        1.88774586
    19.55490845       34.49569042        0.29918629        0.43409328        2.24000000        1.88524986
    19.62818459       34.55917564        0.30107350        0.43334830        2.24000000        1.88275740
    19.70128182       34.62266087        0.30296123        0.43260247        2.24000000        1.88026845
    19.77420212       34.68614610        0.30484949        0.43185575        2.24000000        1.87778299
    19.84694746       34.74963132        0.30673829        0.43110815        2.24000000        1.87530100
    19.91951974       34.81311655        0.30862765        0.43035965        2.24000000        1.87282244
    19.99192083       34.87660177        0.31051755        0.42961023        2.24000000        1.87034731
    20.06415257       34.94008700        0.31240803        0.42885989        2.24000000        1.86787556
    20.13621675       35.00357222        0.31429907        0.42810860        2.24000000        1.86540718
    20.20811511       35.06705745        0.31619070        0.42735635        2.24000000        1.86294215
    20.27984938       35.13054267        0.31808290        0.42660314        2.24000000        1.86048043
    20.35142123       35.19402790        0.31997570        0.42584895        2.24000000        1.85802202
    20.42283231       35.25751312        0.32186910        0.42509376        2.24000000        1.85556688
    20.49408421       35.32099835        0.32376309        0.42433756        2.24000000        1.85311500
    20.56517853       35.38448357        0.32565770        0.42358035        2.24000000        1.85066635
    20.63611680       35.44796880        0.32755291        0.42282210        2.24000000        1.84822091
    20.70690054       35.51145403        0.32944874        0.42206281        2.24000000        1.84577866
    20.77753122       35.57493925        0.33134520        0.42130246        2.24000000        1.84333958
    20.84801029       35.63842448        0.33324227        0.42054105        2.24000000        1.84090365
    20.91833918       35.70190970        0.33513997        0.41977856        2.24000000        1.83847084
    20.98851927       35.76539493        0.33703830        0.41901498        2.24000000        1.83604114
    21.05855194       35.82888015        0.33893727        0.41825030        2.24000000        1.83361453
    21.12843852       35.89236538        0.34083687        0.41748450        2.24000000        1.83119098
    21.19818033       35.95585060        0.34273711        0.41671758        2.24000000        1.82877048
    21.26777864       36.01933583        0.34463799        0.41594953        2.24000000        1.82635301
    21.33723472       36.08282105        0.34653951        0.41518032        2.24000000        1.82393855
    21.40654980       36.14630628        0.34844168        0.41440996        2.24000000        1.82152707
    21.47572510       36.20979150        0.35034449        0.41363844        2.24000000        1.81911856
    21.54476181       36.27327673        0.35224795        0.41286573        2.24000000        1.81671301
    21.61366108       36.33676195        0.35415206        0.41209183        2.24000000        1.81431039
    21.68242407       36.40024718        0.35605682        0.41131673        2.24000000        1.81191069
    21.75105190       36.46373241        0.35796222        0.41054043        2.24000000        1.80951388
    21.81954566       36.52721763        0.35986828        0.40976290        2.24000000        1.80711995
    21.88790643       36.59070286        0.36177498        0.40898414        2.24000000        1.80472889
    21.95613528       36.65418808        0.36368234        0.40820414        2.24000000        1.80234067
    22.02423326       36.71767331        0.36559034        0.40742289        2.24000000        1.79995528
    22.09220135       36.78115853        0.36749899        0.40664037        2.24000000        1.79757269
    22.16004060       36.84464376        0.36940829        0.40585659        2.24000000        1.79519291
    22.22775196       36.90812898        0.37131824        0.40507152        2.24000000        1.79281590
    22.29533640       36.97161421        0.37322884        0.40428516        2.24000000        1.79044165
    22.36279488       37.03509943        0.37514008        0.40349750        2.24000000        1.78807015
    22.43012832       37.09858466        0.37705196        0.40270853        2.24000000        1.78570138
    22.49733763       37.16206988        0.37896449        0.40191824        2.24000000        1.78333533
    22.56442372       37.22555511        0.38087766        0.40112662        2.24000000        1.78097197
    22.63138746       37.28904034        0.38279147        0.40033366        2.24000000        1.77861129
    22.69822971       37.35252556        0.38470592        0.39953935        2.24000000        1.77625329
    22.76495133       37.41601079        0.38662100        0.39874368        2.24000000        1.77389793
    22.83155314       37.47949601        0.38853671        0.39794665        2.24000000        1.77154522
    22.89803598       37.54298124        0.39045306        0.39714823        2.24000000        1.76919513
    22.96440064       37.60646646        0.39237004        0.39634844        2.24000000        1.76684764
    23.03064791       37.66995169        0.39428764        0.39554724        2.24000000        1.76450276
    23.09677857       37.73343691        0.39620587        0.39474464        2.24000000        1.76216045
    23.16279337       37.79692214        0.39812471        0.39394063        2.24000000        1.75982071
    23.22869308       37.86040736        0.40004418        0.39313520        2.24000000        1.75748352
    23.29447842       37.92389259        0.40196426        0.39232833        2.24000000        1.75514888
