#  Theta paroi en deg Angle Choc en deg       Kp           Inverse Mach       Mach amont       Mach aval
     0.00000000       75.05716525        0.00000000        0.03381643        1.03500000
     1.76518663       75.05761353        0.00943740        0.02825797        1.03500000        1.03499592
     1.79801079       75.05824076        0.00975905        0.02806773        1.03500000        1.03499020
     1.85850979       75.05940483        0.01036415        0.02770968        1.03500000        1.03497960
     1.95711499       75.06146362        0.01138421        0.02710567        1.03500000        1.03496086
     2.09361611       75.06477502        0.01286476        0.02622805        1.03500000        1.03493071
     2.26001705       75.06969694        0.01477562        0.02509367        1.03500000        1.03488591
     2.44664229       75.07658724        0.01705525        0.02373788        1.03500000        1.03482322
     2.64563842       75.08580384        0.01964271        0.02219573        1.03500000        1.03473941
     2.85158944       75.09770460        0.02248878        0.02049537        1.03500000        1.03463127
     3.06100560       75.11264744        0.02555633        0.01865790        1.03500000        1.03449561
     3.23556536       75.12759027        0.02824611        0.01704259        1.03500000        1.03436008
     3.38640244       75.14253311        0.03066721        0.01558533        1.03500000        1.03422468
     3.51990363       75.15747594        0.03288483        0.01424777        1.03500000        1.03408942
     3.64010284       75.17241878        0.03494156        0.01300487        1.03500000        1.03395429
     3.74972548       75.18736161        0.03686700        0.01183922        1.03500000        1.03381930
     3.85070711       75.20230445        0.03868271        0.01073815        1.03500000        1.03368444
     3.94447634       75.21724728        0.04040493        0.00969210        1.03500000        1.03354971
     4.03212049       75.23219012        0.04204628        0.00869365        1.03500000        1.03341512
     4.11448811       75.24713295        0.04361677        0.00773691        1.03500000        1.03328066
     4.19225521       75.26207579        0.04512452        0.00681711        1.03500000        1.03314634
     4.26597004       75.27701862        0.04657620        0.00593032        1.03500000        1.03301215
     4.33608390       75.29196146        0.04797737        0.00507326        1.03500000        1.03287810
     4.40297312       75.30690429        0.04933276        0.00424317        1.03500000        1.03274417
     4.46695519       75.32184713        0.05064637        0.00343768        1.03500000        1.03261039
     4.52830061       75.33678996        0.05192167        0.00265474        1.03500000        1.03247673
     4.58724187       75.35173280        0.05316166        0.00189261        1.03500000        1.03234321
     4.64398050       75.36667563        0.05436898        0.00114971        1.03500000        1.03220983
     4.69869236       75.38161846        0.05554595        0.00042470        1.03500000        1.03207658
     4.75153198       75.39656130        0.05669463       -0.00028365        1.03500000        1.03194346
     4.80263588       75.41150413        0.05781684       -0.00097640        1.03500000        1.03181048
     4.85212537       75.42644697        0.05891423       -0.00165454        1.03500000        1.03167763
     4.90010874       75.44138980        0.05998829       -0.00231892        1.03500000        1.03154491
     4.94668314       75.45633264        0.06104034       -0.00297033        1.03500000        1.03141233
     4.99193607       75.47127547        0.06207159       -0.00360948        1.03500000        1.03127989
     5.03594665       75.48621831        0.06308316       -0.00423704        1.03500000        1.03114757
     5.07878669       75.50116114        0.06407605       -0.00485358        1.03500000        1.03101539
     5.12052153       75.51610398        0.06505119       -0.00545965        1.03500000        1.03088335
     5.16121090       75.53104681        0.06600942       -0.00605575        1.03500000        1.03075144
     5.20090950       75.54598965        0.06695152       -0.00664235        1.03500000        1.03061966
     5.23966759       75.56093248        0.06787823       -0.00721986        1.03500000        1.03048802
     5.27753142       75.57587532        0.06879021       -0.00778869        1.03500000        1.03035651
     5.31454370       75.59081815        0.06968808       -0.00834920        1.03500000        1.03022514
     5.35074397       75.60576099        0.07057243       -0.00890172        1.03500000        1.03009390
     5.38616892       75.62070382        0.07144379       -0.00944658        1.03500000        1.02996279
     5.42085255       75.63564666        0.07230266       -0.00998408        1.03500000        1.02983182
     5.45482662       75.65058949        0.07314952       -0.01051448        1.03500000        1.02970098
     5.48812069       75.66553232        0.07398482       -0.01103806        1.03500000        1.02957027
     5.52076239       75.68047516        0.07480896       -0.01155505        1.03500000        1.02943970
     5.55277760       75.69541799        0.07562233       -0.01206568        1.03500000        1.02930927
     5.58419055       75.71036083        0.07642531       -0.01257017        1.03500000        1.02917897
     5.61502402       75.72530366        0.07721823       -0.01306873        1.03500000        1.02904880
     5.64529940       75.74024650        0.07800143       -0.01356154        1.03500000        1.02891876
     5.67503685       75.75518933        0.07877522       -0.01404879        1.03500000        1.02878886
     5.70425536       75.77013217        0.07953989       -0.01453065        1.03500000        1.02865910
     5.73297285       75.78507500        0.08029571       -0.01500728        1.03500000        1.02852947
     5.76120627       75.80001784        0.08104295       -0.01547884        1.03500000        1.02839997
     5.78897164       75.81496067        0.08178186       -0.01594547        1.03500000        1.02827060
     5.81628418       75.82990351        0.08251267       -0.01640732        1.03500000        1.02814138
     5.84315824       75.84484634        0.08323562       -0.01686451        1.03500000        1.02801228
     5.86960750       75.85978918        0.08395092       -0.01731718        1.03500000        1.02788332
     5.89564494       75.87473201        0.08465877       -0.01776543        1.03500000        1.02775449
     5.92128294       75.88967485        0.08535937       -0.01820940        1.03500000        1.02762580
     5.94653320       75.90461768        0.08605290       -0.01864919        1.03500000        1.02749724
     5.97140695       75.91956052        0.08673956       -0.01908490        1.03500000        1.02736881
     5.99591488       75.93450335        0.08741950       -0.01951664        1.03500000        1.02724052
     6.02006714       75.94944619        0.08809289       -0.01994449        1.03500000        1.02711237
     6.04387349       75.96438902        0.08875988       -0.02036856        1.03500000        1.02698434
     6.06734320       75.97933185        0.08942064       -0.02078893        1.03500000        1.02685645
     6.09048522       75.99427469        0.09007530       -0.02120569        1.03500000        1.02672870
     6.11330802       76.00921752        0.09072400       -0.02161892        1.03500000        1.02660108
     6.13581979       76.02416036        0.09136688       -0.02202869        1.03500000        1.02647359
     6.15802832       76.03910319        0.09200406       -0.02243508        1.03500000        1.02634624
     6.17994113       76.05404603        0.09263566       -0.02283816        1.03500000        1.02621902
     6.20156543       76.06898886        0.09326181       -0.02323801        1.03500000        1.02609194
     6.22290808       76.08393170        0.09388262       -0.02363469        1.03500000        1.02596499
     6.24397579       76.09887453        0.09449820       -0.02402826        1.03500000        1.02583817
     6.26477490       76.11381737        0.09510866       -0.02441879        1.03500000        1.02571149
     6.28531160       76.12876020        0.09571409       -0.02480633        1.03500000        1.02558494
     6.30559175       76.14370304        0.09631460       -0.02519095        1.03500000        1.02545853
     6.32562107       76.15864587        0.09691028       -0.02557270        1.03500000        1.02533225
     6.34540507       76.17358871        0.09750122       -0.02595164        1.03500000        1.02520610
     6.36494903       76.18853154        0.09808752       -0.02632781        1.03500000        1.02508009
     6.38425802       76.20347438        0.09866925       -0.02670127        1.03500000        1.02495421
     6.40333700       76.21841721        0.09924651       -0.02707206        1.03500000        1.02482847
     6.42219072       76.23336005        0.09981937       -0.02744024        1.03500000        1.02470286
     6.44082378       76.24830288        0.10038791       -0.02780584        1.03500000        1.02457739
     6.45924057       76.26324571        0.10095220       -0.02816892        1.03500000        1.02445205
     6.47744546       76.27818855        0.10151233       -0.02852951        1.03500000        1.02432684
     6.49544254       76.29313138        0.10206836       -0.02888766        1.03500000        1.02420177
     6.51323583       76.30807422        0.10262035       -0.02924341        1.03500000        1.02407683
     6.53082924       76.32301705        0.10316838       -0.02959680        1.03500000        1.02395203
     6.54822651       76.33795989        0.10371251       -0.02994786        1.03500000        1.02382735
     6.56543129       76.35290272        0.10425281       -0.03029663        1.03500000        1.02370282
     6.58244712       76.36784556        0.10478933       -0.03064314        1.03500000        1.02357842
     6.59927741       76.38278839        0.10532213       -0.03098744        1.03500000        1.02345415
     6.61592548       76.39773123        0.10585127       -0.03132956        1.03500000        1.02333002
     6.63239456       76.41267406        0.10637682       -0.03166952        1.03500000        1.02320602
     6.64868776       76.42761690        0.10689881       -0.03200736        1.03500000        1.02308215
     6.66480815       76.44255973        0.10741731       -0.03234311        1.03500000        1.02295842
     6.68075863       76.45750257        0.10793236       -0.03267680        1.03500000        1.02283482
     6.69654207       76.47244540        0.10844402       -0.03300847        1.03500000        1.02271136
     6.71216127       76.48738824        0.10895234       -0.03333813        1.03500000        1.02258803
     6.72761891       76.50233107        0.10945735       -0.03366582        1.03500000        1.02246484
     6.74291763       76.51727391        0.10995912       -0.03399156        1.03500000        1.02234178
     6.75805997       76.53221674        0.11045768       -0.03431538        1.03500000        1.02221885
     6.77304842       76.54715958        0.11095308       -0.03463731        1.03500000        1.02209606
     6.78788542       76.56210241        0.11144536       -0.03495737        1.03500000        1.02197340
     6.80257329       76.57704524        0.11193456       -0.03527558        1.03500000        1.02185088
     6.81711433       76.59198808        0.11242073       -0.03559197        1.03500000        1.02172849
     6.83151078       76.60693091        0.11290389       -0.03590656        1.03500000        1.02160623
     6.84576480       76.62187375        0.11338410       -0.03621938        1.03500000        1.02148411
     6.85987851       76.63681658        0.11386139       -0.03653044        1.03500000        1.02136212
     6.87385398       76.65175942        0.11433580       -0.03683977        1.03500000        1.02124027
     6.88769322       76.66670225        0.11480735       -0.03714739        1.03500000        1.02111855
     6.90139820       76.68164509        0.11527610       -0.03745332        1.03500000        1.02099697
     6.91497081       76.69658792        0.11574207       -0.03775758        1.03500000        1.02087552
     6.92841291       76.71153076        0.11620529       -0.03806018        1.03500000        1.02075420
     6.94172635       76.72647359        0.11666580       -0.03836116        1.03500000        1.02063302
     6.95491290       76.74141643        0.11712363       -0.03866052        1.03500000        1.02051197
     6.96797427       76.75635926        0.11757882       -0.03895829        1.03500000        1.02039106
     6.98091218       76.77130210        0.11803138       -0.03925448        1.03500000        1.02027028
     6.99372827       76.78624493        0.11848136       -0.03954911        1.03500000        1.02014963
     7.00642414       76.80118777        0.11892879       -0.03984220        1.03500000        1.02002912
     7.01900139       76.81613060        0.11937368       -0.04013376        1.03500000        1.01990874
     7.03146157       76.83107344        0.11981607       -0.04042381        1.03500000        1.01978850
     7.04380616       76.84601627        0.12025599       -0.04071237        1.03500000        1.01966839
     7.05603664       76.86095911        0.12069346       -0.04099945        1.03500000        1.01954842
     7.06815446       76.87590194        0.12112851       -0.04128507        1.03500000        1.01942858
     7.08016102       76.89084477        0.12156116       -0.04156924        1.03500000        1.01930887
     7.09205770       76.90578761        0.12199145       -0.04185198        1.03500000        1.01918930
     7.10384583       76.92073044        0.12241939       -0.04213330        1.03500000        1.01906986
     7.11552676       76.93567328        0.12284501       -0.04241322        1.03500000        1.01895056
     7.12710176       76.95061611        0.12326833       -0.04269174        1.03500000        1.01883139
     7.13857208       76.96555895        0.12368938       -0.04296889        1.03500000        1.01871236
     7.14993900       76.98050178        0.12410818       -0.04324467        1.03500000        1.01859346
     7.16120367       76.99544462        0.12452476       -0.04351911        1.03500000        1.01847469
     7.17236731       77.01038745        0.12493912       -0.04379220        1.03500000        1.01835606
     7.18343108       77.02533029        0.12535131       -0.04406397        1.03500000        1.01823756
     7.19439612       77.04027312        0.12576132       -0.04433442        1.03500000        1.01811920
     7.20526352       77.05521596        0.12616920       -0.04460358        1.03500000        1.01800097
     7.21603439       77.07015879        0.12657495       -0.04487144        1.03500000        1.01788287
     7.22670981       77.08510163        0.12697860       -0.04513803        1.03500000        1.01776491
     7.23729079       77.10004446        0.12738017       -0.04540335        1.03500000        1.01764709
     7.24777839       77.11498730        0.12777967       -0.04566741        1.03500000        1.01752940
     7.25817360       77.12993013        0.12817713       -0.04593023        1.03500000        1.01741184
     7.26847743       77.14487297        0.12857256       -0.04619181        1.03500000        1.01729442
     7.27869081       77.15981580        0.12896599       -0.04645217        1.03500000        1.01717713
     7.28881472       77.17475863        0.12935742       -0.04671132        1.03500000        1.01705997
     7.29885009       77.18970147        0.12974688       -0.04696926        1.03500000        1.01694295
     7.30879783       77.20464430        0.13013439       -0.04722601        1.03500000        1.01682606
     7.31865883       77.21958714        0.13051995       -0.04748158        1.03500000        1.01670931
     7.32843398       77.23452997        0.13090359       -0.04773597        1.03500000        1.01659269
     7.33812415       77.24947281        0.13128533       -0.04798920        1.03500000        1.01647621
     7.34773016       77.26441564        0.13166518       -0.04824127        1.03500000        1.01635986
     7.35725286       77.27935848        0.13204315       -0.04849219        1.03500000        1.01624365
     7.36669309       77.29430131        0.13241926       -0.04874198        1.03500000        1.01612757
     7.37605161       77.30924415        0.13279353       -0.04899064        1.03500000        1.01601162
     7.38532924       77.32418698        0.13316598       -0.04923818        1.03500000        1.01589581
     7.39452675       77.33912982        0.13353660       -0.04948461        1.03500000        1.01578013
     7.40364489       77.35407265        0.13390543       -0.04972994        1.03500000        1.01566459
     7.41268440       77.36901549        0.13427248       -0.04997417        1.03500000        1.01554918
     7.42164604       77.38395832        0.13463775       -0.05021731        1.03500000        1.01543390
     7.43053052       77.39890116        0.13500126       -0.05045937        1.03500000        1.01531876
     7.43933854       77.41384399        0.13536303       -0.05070037        1.03500000        1.01520376
     7.44807080       77.42878683        0.13572307       -0.05094030        1.03500000        1.01508889
     7.45672798       77.44372966        0.13608139       -0.05117917        1.03500000        1.01497415
     7.46531079       77.45867250        0.13643801       -0.05141699        1.03500000        1.01485955
     7.47381985       77.47361533        0.13679294       -0.05165378        1.03500000        1.01474508
     7.48225583       77.48855816        0.13714618       -0.05188953        1.03500000        1.01463074
     7.49061936       77.50350100        0.13749776       -0.05212425        1.03500000        1.01451654
     7.49891109       77.51844383        0.13784768       -0.05235795        1.03500000        1.01440248
     7.50713161       77.53338667        0.13819596       -0.05259064        1.03500000        1.01428855
     7.51528154       77.54832950        0.13854261       -0.05282232        1.03500000        1.01417475
     7.52336150       77.56327234        0.13888764       -0.05305300        1.03500000        1.01406109
     7.53137206       77.57821517        0.13923106       -0.05328269        1.03500000        1.01394756
     7.53931380       77.59315801        0.13957288       -0.05351139        1.03500000        1.01383417
     7.54718729       77.60810084        0.13991312       -0.05373911        1.03500000        1.01372091
     7.55499311       77.62304368        0.14025178       -0.05396585        1.03500000        1.01360778
     7.56273180       77.63798651        0.14058887       -0.05419163        1.03500000        1.01349479
     7.57040390       77.65292935        0.14092441       -0.05441644        1.03500000        1.01338194
     7.57800994       77.66787218        0.14125841       -0.05464030        1.03500000        1.01326921
     7.58555047       77.68281502        0.14159087       -0.05486320        1.03500000        1.01315663
     7.59302599       77.69775785        0.14192181       -0.05508516        1.03500000        1.01304417
     7.60043702       77.71270069        0.14225124       -0.05530619        1.03500000        1.01293186
     7.60778406       77.72764352        0.14257916       -0.05552627        1.03500000        1.01281967
     7.61506762       77.74258636        0.14290559       -0.05574543        1.03500000        1.01270762
