#  Theta paroi en deg Angle Choc en deg       Kp           Inverse Mach       Mach amont       Mach aval
     0.00000000       33.32932653        0.00000000        0.45054945        1.82000000
     2.07736243       33.33102665        0.00821470        0.44680494        1.82000000        1.81993131
     2.48048779       33.33340542        0.01109402        0.44549584        1.82000000        1.81983520
     2.92534135       33.33782013        0.01464079        0.44388559        1.82000000        1.81965687
     3.41075831       33.34562809        0.01892008        0.44194608        1.82000000        1.81934155
     3.91426187       33.35818659        0.02377855        0.43974830        1.82000000        1.81883460
     4.42213825       33.37685293        0.02908500        0.43735280        1.82000000        1.81808159
     4.92845762       33.40298441        0.03475842        0.43479710        1.82000000        1.81702843
     5.43143832       33.43793832        0.04075507        0.43210161        1.82000000        1.81562151
     5.93126693       33.48307197        0.04705537        0.42927574        1.82000000        1.81380789
     6.42902049       33.53974264        0.05365531        0.42632179        1.82000000        1.81153551
     6.84094474       33.59641331        0.05935570        0.42377536        1.82000000        1.80926846
     7.19710213       33.65308399        0.06445433        0.42150136        1.82000000        1.80700670
     7.51374794       33.70975466        0.06911726        0.41942452        1.82000000        1.80475020
     7.80075007       33.76642533        0.07344777        0.41749802        1.82000000        1.80249892
     8.06458609       33.82309601        0.07751499        0.41569056        1.82000000        1.80025280
     8.30975588       33.87976668        0.08136776        0.41398001        1.82000000        1.79801181
     8.53952289       33.93643735        0.08504201        0.41235010        1.82000000        1.79577591
     8.75633524       33.99310803        0.08856502        0.41078849        1.82000000        1.79354507
     8.96208038       34.04977870        0.09195806        0.40928553        1.82000000        1.79131924
     9.15824666       34.10644938        0.09523807        0.40783356        1.82000000        1.78909838
     9.34603016       34.16312005        0.09841879        0.40642636        1.82000000        1.78688246
     9.52640768       34.21979072        0.10151153        0.40505882        1.82000000        1.78467143
     9.70018812       34.27646140        0.10452570        0.40372665        1.82000000        1.78246526
     9.86804950       34.33313207        0.10746927        0.40242626        1.82000000        1.78026392
    10.03056623       34.38980274        0.11034901        0.40115457        1.82000000        1.77806737
    10.18822951       34.44647342        0.11317077        0.39990894        1.82000000        1.77587556
    10.34146295       34.50314409        0.11593960        0.39868708        1.82000000        1.77368847
    10.49063466       34.55981476        0.11865991        0.39748697        1.82000000        1.77150606
    10.63606668       34.61648544        0.12133557        0.39630687        1.82000000        1.76932829
    10.77804250       34.67315611        0.12397003        0.39514521        1.82000000        1.76715513
    10.91681308       34.72982678        0.12656632        0.39400062        1.82000000        1.76498655
    11.05260176       34.78649746        0.12912716        0.39287184        1.82000000        1.76282250
    11.18560820       34.84316813        0.13165500        0.39175778        1.82000000        1.76066297
    11.31601167       34.89983880        0.13415204        0.39065742        1.82000000        1.75850790
    11.44397386       34.95650948        0.13662025        0.38956988        1.82000000        1.75635728
    11.56964103       35.01318015        0.13906144        0.38849431        1.82000000        1.75421107
    11.69314606       35.06985082        0.14147726        0.38742997        1.82000000        1.75206923
    11.81460997       35.12652150        0.14386920        0.38637618        1.82000000        1.74993173
    11.93414341       35.18319217        0.14623864        0.38533231        1.82000000        1.74779854
    12.05184773       35.23986284        0.14858683        0.38429777        1.82000000        1.74566964
    12.16781611       35.29653352        0.15091494        0.38327205        1.82000000        1.74354498
    12.28213433       35.35320419        0.15322403        0.38225464        1.82000000        1.74142454
    12.39488166       35.40987487        0.15551509        0.38124509        1.82000000        1.73930830
    12.50613143       35.46654554        0.15778905        0.38024298        1.82000000        1.73719620
    12.61595163       35.52321621        0.16004675        0.37924791        1.82000000        1.73508824
    12.72440547       35.57988689        0.16228899        0.37825952        1.82000000        1.73298438
    12.83155177       35.63655756        0.16451649        0.37727747        1.82000000        1.73088458
    12.93744544       35.69322823        0.16672996        0.37630143        1.82000000        1.72878882
    13.04213773       35.74989891        0.16893004        0.37533111        1.82000000        1.72669708
    13.14567661       35.80656958        0.17111733        0.37436623        1.82000000        1.72460932
    13.24810705       35.86324025        0.17329239        0.37340652        1.82000000        1.72252552
    13.34947126       35.91991093        0.17545575        0.37245173        1.82000000        1.72044564
    13.44980890       35.97658160        0.17760792        0.37150164        1.82000000        1.71836966
    13.54915731       36.03325227        0.17974937        0.37055601        1.82000000        1.71629756
    13.64755170       36.08992295        0.18188053        0.36961464        1.82000000        1.71422930
    13.74502525       36.14659362        0.18400182        0.36867733        1.82000000        1.71216486
    13.84160934       36.20326429        0.18611365        0.36774390        1.82000000        1.71010421
    13.93733362       36.25993497        0.18821638        0.36681417        1.82000000        1.70804733
    14.03222620       36.31660564        0.19031037        0.36588797        1.82000000        1.70599419
    14.12631368       36.37327631        0.19239595        0.36496514        1.82000000        1.70394477
    14.21962135       36.42994699        0.19447344        0.36404553        1.82000000        1.70189904
    14.31217318       36.48661766        0.19654314        0.36312899        1.82000000        1.69985697
    14.40399196       36.54328833        0.19860534        0.36221539        1.82000000        1.69781854
    14.49509939       36.59995901        0.20066030        0.36130459        1.82000000        1.69578372
    14.58551614       36.65662968        0.20270830        0.36039647        1.82000000        1.69375250
    14.67526189       36.71330035        0.20474956        0.35949092        1.82000000        1.69172484
    14.76435543       36.76997103        0.20678434        0.35858780        1.82000000        1.68970073
    14.85281467       36.82664170        0.20881285        0.35768702        1.82000000        1.68768013
    14.94065674       36.88331238        0.21083531        0.35678847        1.82000000        1.68566303
    15.02789800       36.93998305        0.21285192        0.35589205        1.82000000        1.68364940
    15.11455413       36.99665372        0.21486287        0.35499767        1.82000000        1.68163922
    15.20064012       37.05332440        0.21686836        0.35410522        1.82000000        1.67963247
    15.28617032       37.10999507        0.21886856        0.35321462        1.82000000        1.67762912
    15.37115850       37.16666574        0.22086364        0.35232578        1.82000000        1.67562915
    15.45561787       37.22333642        0.22285377        0.35143863        1.82000000        1.67363255
    15.53956109       37.28000709        0.22483910        0.35055309        1.82000000        1.67163928
    15.62300035       37.33667776        0.22681978        0.34966906        1.82000000        1.66964932
    15.70594733       37.39334844        0.22879595        0.34878649        1.82000000        1.66766266
    15.78841327       37.45001911        0.23076777        0.34790531        1.82000000        1.66567928
    15.87040900       37.50668978        0.23273534        0.34702544        1.82000000        1.66369914
    15.95194490       37.56336046        0.23469882        0.34614681        1.82000000        1.66172224
    16.03303101       37.62003113        0.23665831        0.34526937        1.82000000        1.65974855
    16.11367698       37.67670180        0.23861393        0.34439305        1.82000000        1.65777805
    16.19389212       37.73337248        0.24056580        0.34351780        1.82000000        1.65581072
    16.27368539       37.79004315        0.24251403        0.34264354        1.82000000        1.65384654
    16.35306545       37.84671382        0.24445872        0.34177024        1.82000000        1.65188549
    16.43204066       37.90338450        0.24639998        0.34089784        1.82000000        1.64992755
    16.51061907       37.96005517        0.24833789        0.34002627        1.82000000        1.64797270
    16.58880848       38.01672584        0.25027255        0.33915550        1.82000000        1.64602092
    16.66661643       38.07339652        0.25220406        0.33828547        1.82000000        1.64407219
    16.74405018       38.13006719        0.25413250        0.33741614        1.82000000        1.64212650
    16.82111679       38.18673787        0.25605795        0.33654745        1.82000000        1.64018383
    16.89782305       38.24340854        0.25798049        0.33567937        1.82000000        1.63824415
    16.97417555       38.30007921        0.25990021        0.33481185        1.82000000        1.63630744
    17.05018070       38.35674989        0.26181718        0.33394485        1.82000000        1.63437370
    17.12584466       38.41342056        0.26373146        0.33307832        1.82000000        1.63244290
    17.20117341       38.47009123        0.26564314        0.33221223        1.82000000        1.63051503
    17.27617278       38.52676191        0.26755228        0.33134654        1.82000000        1.62859006
    17.35084838       38.58343258        0.26945894        0.33048120        1.82000000        1.62666798
    17.42520566       38.64010325        0.27136318        0.32961619        1.82000000        1.62474877
    17.49924994       38.69677393        0.27326508        0.32875147        1.82000000        1.62283241
    17.57298634       38.75344460        0.27516468        0.32788699        1.82000000        1.62091890
    17.64641985       38.81011527        0.27706205        0.32702274        1.82000000        1.61900820
    17.71955532       38.86678595        0.27895723        0.32615866        1.82000000        1.61710031
    17.79239744       38.92345662        0.28085029        0.32529474        1.82000000        1.61519520
    17.86495079       38.98012729        0.28274128        0.32443094        1.82000000        1.61329286
    17.93721981       39.03679797        0.28463024        0.32356722        1.82000000        1.61139328
    18.00920881       39.09346864        0.28651722        0.32270356        1.82000000        1.60949644
    18.08092200       39.15013931        0.28840227        0.32183993        1.82000000        1.60760232
    18.15236346       39.20680999        0.29028544        0.32097630        1.82000000        1.60571091
    18.22353715       39.26348066        0.29216677        0.32011264        1.82000000        1.60382219
    18.29444696       39.32015133        0.29404630        0.31924893        1.82000000        1.60193615
    18.36509662       39.37682201        0.29592407        0.31838513        1.82000000        1.60005276
    18.43548981       39.43349268        0.29780013        0.31752122        1.82000000        1.59817202
    18.50563010       39.49016335        0.29967451        0.31665717        1.82000000        1.59629391
    18.57552095       39.54683403        0.30154725        0.31579297        1.82000000        1.59441842
    18.64516575       39.60350470        0.30341839        0.31492858        1.82000000        1.59254553
    18.71456780       39.66017538        0.30528795        0.31406397        1.82000000        1.59067522
    18.78373031       39.71684605        0.30715598        0.31319914        1.82000000        1.58880749
    18.85265642       39.77351672        0.30902251        0.31233404        1.82000000        1.58694231
    18.92134917       39.83018740        0.31088757        0.31146867        1.82000000        1.58507968
    18.98981154       39.88685807        0.31275119        0.31060299        1.82000000        1.58321957
    19.05804645       39.94352874        0.31461341        0.30973699        1.82000000        1.58136198
    19.12605672       40.00019942        0.31647424        0.30887064        1.82000000        1.57950689
    19.19384512       40.05687009        0.31833372        0.30800392        1.82000000        1.57765429
    19.26141435       40.11354076        0.32019188        0.30713682        1.82000000        1.57580417
    19.32876704       40.17021144        0.32204874        0.30626931        1.82000000        1.57395650
    19.39590577       40.22688211        0.32390433        0.30540137        1.82000000        1.57211128
    19.46283305       40.28355278        0.32575868        0.30453298        1.82000000        1.57026850
    19.52955132       40.34022346        0.32761180        0.30366412        1.82000000        1.56842814
    19.59606299       40.39689413        0.32946372        0.30279477        1.82000000        1.56659018
    19.66237040       40.45356480        0.33131447        0.30192493        1.82000000        1.56475462
    19.72847584       40.51023548        0.33316407        0.30105455        1.82000000        1.56292145
    19.79438153       40.56690615        0.33501253        0.30018364        1.82000000        1.56109064
    19.86008967       40.62357682        0.33685988        0.29931216        1.82000000        1.55926219
    19.92560238       40.68024750        0.33870614        0.29844011        1.82000000        1.55743609
    19.99092176       40.73691817        0.34055133        0.29756746        1.82000000        1.55561232
    20.05604985       40.79358884        0.34239547        0.29669420        1.82000000        1.55379088
    20.12098865       40.85025952        0.34423857        0.29582032        1.82000000        1.55197174
    20.18574010       40.90693019        0.34608066        0.29494579        1.82000000        1.55015490
    20.25030613       40.96360087        0.34792174        0.29407060        1.82000000        1.54834034
    20.31468859       41.02027154        0.34976185        0.29319473        1.82000000        1.54652806
    20.37888932       41.07694221        0.35160099        0.29231817        1.82000000        1.54471805
    20.44291011       41.13361289        0.35343917        0.29144090        1.82000000        1.54291028
    20.50675271       41.19028356        0.35527643        0.29056291        1.82000000        1.54110475
    20.57041884       41.24695423        0.35711276        0.28968418        1.82000000        1.53930146
    20.63391016       41.30362491        0.35894819        0.28880470        1.82000000        1.53750038
    20.69722833       41.36029558        0.36078272        0.28792444        1.82000000        1.53570150
    20.76037497       41.41696625        0.36261638        0.28704341        1.82000000        1.53390482
    20.82335164       41.47363693        0.36444917        0.28616158        1.82000000        1.53211033
    20.88615988       41.53030760        0.36628111        0.28527894        1.82000000        1.53031801
    20.94880121       41.58697827        0.36811220        0.28439548        1.82000000        1.52852785
    21.01127712       41.64364895        0.36994247        0.28351117        1.82000000        1.52673985
    21.07358905       41.70031962        0.37177192        0.28262602        1.82000000        1.52495399
    21.13573842       41.75699029        0.37360057        0.28173999        1.82000000        1.52317026
    21.19772664       41.81366097        0.37542841        0.28085309        1.82000000        1.52138866
    21.25955506       41.87033164        0.37725548        0.27996530        1.82000000        1.51960917
    21.32122503       41.92700231        0.37908176        0.27907661        1.82000000        1.51783178
    21.38273785       41.98367299        0.38090729        0.27818699        1.82000000        1.51605648
    21.44409482       42.04034366        0.38273205        0.27729645        1.82000000        1.51428326
    21.50529719       42.09701433        0.38455607        0.27640496        1.82000000        1.51251212
    21.56634621       42.15368501        0.38637935        0.27551252        1.82000000        1.51074303
    21.62724307       42.21035568        0.38820189        0.27461911        1.82000000        1.50897601
    21.68798899       42.26702636        0.39002372        0.27372472        1.82000000        1.50721102
    21.74858511       42.32369703        0.39184483        0.27282934        1.82000000        1.50544807
    21.80903259       42.38036770        0.39366523        0.27193296        1.82000000        1.50368715
    21.86933254       42.43703838        0.39548494        0.27103556        1.82000000        1.50192824
    21.92948607       42.49370905        0.39730395        0.27013713        1.82000000        1.50017134
    21.98949426       42.55037972        0.39912228        0.26923767        1.82000000        1.49841644
    22.04935816       42.60705040        0.40093992        0.26833715        1.82000000        1.49666353
    22.10907881       42.66372107        0.40275690        0.26743558        1.82000000        1.49491259
    22.16865724       42.72039174        0.40457320        0.26653293        1.82000000        1.49316363
    22.22809444       42.77706242        0.40638885        0.26562920        1.82000000        1.49141663
    22.28739141       42.83373309        0.40820384        0.26472437        1.82000000        1.48967158
    22.34654909       42.89040376        0.41001818        0.26381844        1.82000000        1.48792849
    22.40556844       42.94707444        0.41183187        0.26291140        1.82000000        1.48618732
    22.46445039       43.00374511        0.41364493        0.26200322        1.82000000        1.48444809
    22.52319583       43.06041578        0.41545734        0.26109391        1.82000000        1.48271078
    22.58180569       43.11708646        0.41726913        0.26018345        1.82000000        1.48097537
    22.64028081       43.17375713        0.41908029        0.25927184        1.82000000        1.47924188
    22.69862208       43.23042780        0.42089082        0.25835905        1.82000000        1.47751028
    22.75683034       43.28709848        0.42270074        0.25744509        1.82000000        1.47578056
    22.81490641       43.34376915        0.42451004        0.25652993        1.82000000        1.47405273
    22.87285112       43.40043982        0.42631873        0.25561358        1.82000000        1.47232677
    22.93066525       43.45711050        0.42812680        0.25469601        1.82000000        1.47060268
    22.98834961       43.51378117        0.42993428        0.25377723        1.82000000        1.46888044
