#  Theta paroi en deg Angle Choc en deg       Kp           Inverse Mach       Mach amont       Mach aval
     0.00000000        3.82255373        0.00000000        0.93333333       15.00000000
     0.51384263        3.82513905        0.00037316        0.93277491       15.00000000       14.99655025
     0.62401419        3.82875638        0.00051319        0.93257213       15.00000000       14.99172992
     0.74211761        3.83546971        0.00068083        0.93233392       15.00000000       14.98280388
     0.87146268        3.84734304        0.00088394        0.93205167       15.00000000       14.96707986
     1.00918653        3.86644039        0.00112158        0.93172984       15.00000000       14.94195439
     1.15425493        3.89482575        0.00139494        0.93137012       15.00000000       14.90497620
     1.30725742        3.93456313        0.00170838        0.93097053       15.00000000       14.85391887
     1.46960632        3.98771653        0.00206891        0.93052645       15.00000000       14.78685087
     1.64307629        4.05634995        0.00248589        0.93003151       15.00000000       14.70218888
     1.82958224        4.14252740        0.00297100        0.92947795       15.00000000       14.59872104
     1.99539943        4.22870484        0.00343455        0.92896844       15.00000000       14.49811334
     2.14775587        4.31488229        0.00388748        0.92848657       15.00000000       14.40008590
     2.29055125        4.40105973        0.00433566        0.92802331       15.00000000       14.30439371
     2.42614933        4.48723718        0.00478262        0.92757316       15.00000000       14.21082171
     2.55610083        4.57341463        0.00523064        0.92713244       15.00000000       14.11918072
     2.68148268        4.65959207        0.00568126        0.92669859       15.00000000       14.02930402
     2.80307649        4.74576952        0.00613558        0.92626974       15.00000000       13.94104435
     2.92146910        4.83194697        0.00659440        0.92584448       15.00000000       13.85427146
     3.03711375        4.91812441        0.00705834        0.92542171       15.00000000       13.76886996
     3.15036874        5.00430186        0.00752786        0.92500058       15.00000000       13.68473749
     3.26152262        5.09047930        0.00800331        0.92458040       15.00000000       13.60178310
     3.37081189        5.17665675        0.00848498        0.92416060       15.00000000       13.51992593
     3.47843303        5.26283420        0.00897310        0.92374071       15.00000000       13.43909400
     3.58455136        5.34901164        0.00946785        0.92332036       15.00000000       13.35922315
     3.68930751        5.43518909        0.00996939        0.92289923       15.00000000       13.28025620
     3.79282233        5.52136654        0.01047785        0.92247703       15.00000000       13.20214210
     3.89520042        5.60754398        0.01099331        0.92205354       15.00000000       13.12483527
     3.99653315        5.69372143        0.01151589        0.92162857       15.00000000       13.04829499
     4.09690081        5.77989887        0.01204563        0.92120195       15.00000000       12.97248486
     4.19637451        5.86607632        0.01258261        0.92077353       15.00000000       12.89737231
     4.29501735        5.95225377        0.01312688        0.92034320       15.00000000       12.82292823
     4.39288589        6.03843121        0.01367849        0.91991084       15.00000000       12.74912653
     4.49003087        6.12460866        0.01423746        0.91947638       15.00000000       12.67594388
     4.58649809        6.21078611        0.01480384        0.91903972       15.00000000       12.60335936
     4.68232906        6.29696355        0.01537765        0.91860082       15.00000000       12.53135423
     4.77756150        6.38314100        0.01595891        0.91815961       15.00000000       12.45991173
     4.87222981        6.46931844        0.01654764        0.91771605       15.00000000       12.38901677
     4.96636551        6.55549589        0.01714387        0.91727010       15.00000000       12.31865588
     5.05999750        6.64167334        0.01774759        0.91682173       15.00000000       12.24881692
     5.15315235        6.72785078        0.01835884        0.91637091       15.00000000       12.17948901
     5.24585463        6.81402823        0.01897761        0.91591762       15.00000000       12.11066239
     5.33812702        6.90020568        0.01960392        0.91546185       15.00000000       12.04232827
     5.42999058        6.98638312        0.02023777        0.91500357       15.00000000       11.97447871
     5.52146480        7.07256057        0.02087917        0.91454279       15.00000000       11.90710661
     5.61256790        7.15873801        0.02152812        0.91407951       15.00000000       11.84020553
     5.70331682        7.24491546        0.02218462        0.91361370       15.00000000       11.77376964
     5.79372736        7.33109291        0.02284869        0.91314539       15.00000000       11.70779369
     5.88381435        7.41727035        0.02352031        0.91267457       15.00000000       11.64227289
     5.97359164        7.50344780        0.02419950        0.91220124       15.00000000       11.57720289
     6.06307227        7.58962525        0.02488624        0.91172541       15.00000000       11.51257973
     6.15226844        7.67580269        0.02558055        0.91124709       15.00000000       11.44839977
     6.24119165        7.76198014        0.02628242        0.91076629       15.00000000       11.38465967
     6.32985275        7.84815759        0.02699184        0.91028302       15.00000000       11.32135634
     6.41826193        7.93433503        0.02770882        0.90979730       15.00000000       11.25848692
     6.50642887        8.02051248        0.02843336        0.90930912       15.00000000       11.19604875
     6.59436267        8.10668992        0.02916545        0.90881852       15.00000000       11.13403932
     6.68207194        8.19286737        0.02990508        0.90832550       15.00000000       11.07245628
     6.76956487        8.27904482        0.03065226        0.90783008       15.00000000       11.01129739
     6.85684918        8.36522226        0.03140698        0.90733228       15.00000000       10.95056053
     6.94393224        8.45139971        0.03216923        0.90683210       15.00000000       10.89024365
     7.03082101        8.53757716        0.03293902        0.90632958       15.00000000       10.83034478
     7.11752212        8.62375460        0.03371633        0.90582472       15.00000000       10.77086200
     7.20404189        8.70993205        0.03450117        0.90531755       15.00000000       10.71179346
     7.29038634        8.79610949        0.03529353        0.90480807       15.00000000       10.65313732
     7.37656116        8.88228694        0.03609339        0.90429632       15.00000000       10.59489177
     7.46257180        8.96846439        0.03690077        0.90378230       15.00000000       10.53705502
     7.54842350        9.05464183        0.03771564        0.90326604       15.00000000       10.47962529
     7.63412119        9.14081928        0.03853801        0.90274756       15.00000000       10.42260083
     7.71966964        9.22699673        0.03936787        0.90222687       15.00000000       10.36597984
     7.80507336        9.31317417        0.04020522        0.90170399       15.00000000       10.30976054
     7.89033670        9.39935162        0.04105004        0.90117894       15.00000000       10.25394116
     7.97546382        9.48552906        0.04190233        0.90065174       15.00000000       10.19851988
     8.06045870        9.57170651        0.04276208        0.90012241       15.00000000       10.14349488
     8.14532512        9.65788396        0.04362929        0.89959096       15.00000000       10.08886433
     8.23006674        9.74406140        0.04450396        0.89905742       15.00000000       10.03462636
     8.31468708        9.83023885        0.04538606        0.89852181       15.00000000        9.98077908
     8.39918947        9.91641630        0.04627560        0.89798413       15.00000000        9.92732060
     8.48357715       10.00259374        0.04717257        0.89744441       15.00000000        9.87424898
     8.56785322       10.08877119        0.04807696        0.89690267       15.00000000        9.82156226
     8.65202064       10.17494863        0.04898877        0.89635893       15.00000000        9.76925845
     8.73608229       10.26112608        0.04990798        0.89581319       15.00000000        9.71733555
     8.82004091       10.34730353        0.05083459        0.89526549       15.00000000        9.66579152
     8.90389914       10.43348097        0.05176859        0.89471583       15.00000000        9.61462429
     8.98765953       10.51965842        0.05270998        0.89416424       15.00000000        9.56383178
     9.07132455       10.60583587        0.05365874        0.89361073       15.00000000        9.51341188
     9.15489653       10.69201331        0.05461487        0.89305531       15.00000000        9.46336244
     9.23837778       10.77819076        0.05557835        0.89249801       15.00000000        9.41368130
     9.32177047       10.86436820        0.05654919        0.89193884       15.00000000        9.36436627
     9.40507672       10.95054565        0.05752737        0.89137782       15.00000000        9.31541515
     9.48829858       11.03672310        0.05851289        0.89081495       15.00000000        9.26682571
     9.57143801       11.12290054        0.05950573        0.89025026       15.00000000        9.21859569
     9.65449692       11.20907799        0.06050588        0.88968377       15.00000000        9.17072282
     9.73747713       11.29525544        0.06151335        0.88911548       15.00000000        9.12320481
     9.82038041       11.38143288        0.06252811        0.88854542       15.00000000        9.07603937
     9.90320851       11.46761033        0.06355016        0.88797359       15.00000000        9.02922415
     9.98596305       11.55378777        0.06457950        0.88740001       15.00000000        8.98275682
    10.06864564       11.63996522        0.06561611        0.88682470       15.00000000        8.93663503
    10.15125781       11.72614267        0.06665998        0.88624766       15.00000000        8.89085642
    10.23380109       11.81232011        0.06771111        0.88566892       15.00000000        8.84541859
    10.31627690       11.89849756        0.06876948        0.88508849       15.00000000        8.80031916
    10.39868665       11.98467501        0.06983508        0.88450637       15.00000000        8.75555574
    10.48103171       12.07085245        0.07090792        0.88392259       15.00000000        8.71112590
    10.56331337       12.15702990        0.07198797        0.88333715       15.00000000        8.66702723
    10.64553291       12.24320734        0.07307523        0.88275007       15.00000000        8.62325731
    10.72769157       12.32938479        0.07416968        0.88216136       15.00000000        8.57981371
    10.80979053       12.41556224        0.07527132        0.88157103       15.00000000        8.53669399
    10.89183095       12.50173968        0.07638015        0.88097910       15.00000000        8.49389571
    10.97381396       12.58791713        0.07749614        0.88038557       15.00000000        8.45141643
    11.05574064       12.67409458        0.07861928        0.87979045       15.00000000        8.40925370
    11.13761205       12.76027202        0.07974958        0.87919377       15.00000000        8.36740508
    11.21942919       12.84644947        0.08088701        0.87859552       15.00000000        8.32586813
    11.30119310       12.93262692        0.08203158        0.87799572       15.00000000        8.28464039
    11.38290469       13.01880436        0.08318326        0.87739439       15.00000000        8.24371943
    11.46456493       13.10498181        0.08434205        0.87679152       15.00000000        8.20310280
    11.54617470       13.19115925        0.08550793        0.87618713       15.00000000        8.16278806
    11.62773492       13.27733670        0.08668091        0.87558124       15.00000000        8.12277278
    11.70924640       13.36351415        0.08786096        0.87497384       15.00000000        8.08305453
    11.79070999       13.44969159        0.08904807        0.87436496       15.00000000        8.04363088
    11.87212651       13.53586904        0.09024224        0.87375459       15.00000000        8.00449942
    11.95349672       13.62204649        0.09144346        0.87314275       15.00000000        7.96565773
    12.03482140       13.70822393        0.09265170        0.87252944       15.00000000        7.92710340
    12.11610127       13.79440138        0.09386698        0.87191468       15.00000000        7.88883405
    12.19733707       13.88057882        0.09508926        0.87129848       15.00000000        7.85084727
    12.27852949       13.96675627        0.09631854        0.87068084       15.00000000        7.81314068
    12.35967921       14.05293372        0.09755482        0.87006177       15.00000000        7.77571192
    12.44078689       14.13911116        0.09879807        0.86944127       15.00000000        7.73855862
    12.52185318       14.22528861        0.10004829        0.86881936       15.00000000        7.70167844
    12.60287870       14.31146606        0.10130547        0.86819605       15.00000000        7.66506902
    12.68386405       14.39764350        0.10256959        0.86757134       15.00000000        7.62872805
    12.76480983       14.48382095        0.10384065        0.86694523       15.00000000        7.59265320
    12.84571664       14.56999839        0.10511863        0.86631774       15.00000000        7.55684216
    12.92658500       14.65617584        0.10640352        0.86568887       15.00000000        7.52129265
    13.00741547       14.74235329        0.10769531        0.86505863       15.00000000        7.48600238
    13.08820860       14.82853073        0.10899399        0.86442703       15.00000000        7.45096908
    13.16896488       14.91470818        0.11029954        0.86379407       15.00000000        7.41619050
    13.24968483       15.00088563        0.11161196        0.86315975       15.00000000        7.38166439
    13.33036894       15.08706307        0.11293123        0.86252409       15.00000000        7.34738853
    13.41101768       15.17324052        0.11425734        0.86188709       15.00000000        7.31336071
    13.49163152       15.25941796        0.11559028        0.86124876       15.00000000        7.27957873
    13.57221091       15.34559541        0.11693004        0.86060909       15.00000000        7.24604039
    13.65275628       15.43177286        0.11827660        0.85996810       15.00000000        7.21274354
    13.73326808       15.51795030        0.11962995        0.85932580       15.00000000        7.17968601
    13.81374673       15.60412775        0.12099009        0.85868218       15.00000000        7.14686567
    13.89419261       15.69030520        0.12235699        0.85803725       15.00000000        7.11428039
    13.97460614       15.77648264        0.12373065        0.85739102       15.00000000        7.08192806
    14.05498771       15.86266009        0.12511105        0.85674350       15.00000000        7.04980659
    14.13533769       15.94883753        0.12649818        0.85609467       15.00000000        7.01791390
    14.21565644       16.03501498        0.12789203        0.85544456       15.00000000        6.98624793
    14.29594432       16.12119243        0.12929258        0.85479317       15.00000000        6.95480663
    14.37620169       16.20736987        0.13069983        0.85414049       15.00000000        6.92358797
    14.45642889       16.29354732        0.13211376        0.85348653       15.00000000        6.89258993
    14.53662625       16.37972477        0.13353436        0.85283130       15.00000000        6.86181053
    14.61679408       16.46590221        0.13496161        0.85217481       15.00000000        6.83124776
    14.69693271       16.55207966        0.13639550        0.85151704       15.00000000        6.80089968
    14.77704245       16.63825710        0.13783603        0.85085802       15.00000000        6.77076432
    14.85712359       16.72443455        0.13928316        0.85019774       15.00000000        6.74083976
    14.93717642       16.81061200        0.14073691        0.84953620       15.00000000        6.71112408
    15.01720124       16.89678944        0.14219724        0.84887341       15.00000000        6.68161537
    15.09719831       16.98296689        0.14366415        0.84820936       15.00000000        6.65231175
    15.17716790       17.06914434        0.14513762        0.84754408       15.00000000        6.62321136
    15.25711030       17.15532178        0.14661764        0.84687755       15.00000000        6.59431234
    15.33702575       17.24149923        0.14810420        0.84620978       15.00000000        6.56561285
    15.41691450       17.32767667        0.14959728        0.84554077       15.00000000        6.53711107
    15.49677679       17.41385412        0.15109687        0.84487052       15.00000000        6.50880520
    15.57661287       17.50003157        0.15260296        0.84419904       15.00000000        6.48069346
    15.65642297       17.58620901        0.15411552        0.84352633       15.00000000        6.45277407
    15.73620731       17.67238646        0.15563456        0.84285239       15.00000000        6.42504527
    15.81596612       17.75856391        0.15716006        0.84217722       15.00000000        6.39750533
    15.89569960       17.84474135        0.15869199        0.84150083       15.00000000        6.37015252
    15.97540799       17.93091880        0.16023036        0.84082322       15.00000000        6.34298513
    16.05509146       18.01709625        0.16177513        0.84014438       15.00000000        6.31600148
    16.13475025       18.10327369        0.16332631        0.83946432       15.00000000        6.28919989
    16.21438451       18.18945114        0.16488387        0.83878305       15.00000000        6.26257869
    16.29399447       18.27562858        0.16644781        0.83810056       15.00000000        6.23613624
    16.37358029       18.36180603        0.16801810        0.83741685       15.00000000        6.20987092
    16.45314215       18.44798348        0.16959473        0.83673193       15.00000000        6.18378111
    16.53268025       18.53416092        0.17117770        0.83604579       15.00000000        6.15786521
    16.61219473       18.62033837        0.17276697        0.83535845       15.00000000        6.13212164
    16.69168578       18.70651582        0.17436255        0.83466989       15.00000000        6.10654882
    16.77115356       18.79269326        0.17596442        0.83398012       15.00000000        6.08114522
    16.85059822       18.87887071        0.17757255        0.83328914       15.00000000        6.05590929
    16.93001991       18.96504815        0.17918695        0.83259696       15.00000000        6.03083950
    17.00941880       19.05122560        0.18080758        0.83190356       15.00000000        6.00593435
    17.08879503       19.13740305        0.18243445        0.83120896       15.00000000        5.98119235
    17.16814873       19.22358049        0.18406752        0.83051315       15.00000000        5.95661202
    17.24748005       19.30975794        0.18570680        0.82981613       15.00000000        5.93219189
