#  Theta paroi en deg Angle Choc en deg       Kp           Inverse Mach       Mach amont       Mach aval
     0.00000000       31.94470133        0.00000000        0.47089947        1.89000000
     2.04738513       31.94644299        0.00788653        0.46733144        1.89000000        1.88992630
     2.44863859       31.94887988        0.01067470        0.46607416        1.89000000        1.88982319
     2.88971736       31.95340246        0.01409666        0.46453396        1.89000000        1.88963186
     3.37012380       31.96140119        0.01821705        0.46268349        1.89000000        1.88929356
     3.86801151       31.97426653        0.02288994        0.46059014        1.89000000        1.88874968
     4.37009617       31.99338894        0.02799113        0.45831108        1.89000000        1.88794186
     4.87070708       32.02015888        0.03344475        0.45588141        1.89000000        1.88681212
     5.36822332       32.05596682        0.03921082        0.45331992        1.89000000        1.88530305
     5.86293994       32.10220320        0.04527251        0.45063495        1.89000000        1.88335799
     6.35601442       32.16025850        0.05162800        0.44782806        1.89000000        1.88092131
     6.76443621       32.21831380        0.05712271        0.44540780        1.89000000        1.87849076
     7.11786876       32.27636910        0.06204217        0.44324578        1.89000000        1.87606631
     7.43234751       32.33442440        0.06654548        0.44127049        1.89000000        1.87364790
     7.71760516       32.39247970        0.07073156        0.43943752        1.89000000        1.87123548
     7.98002964       32.45053499        0.07466659        0.43771714        1.89000000        1.86882899
     8.22405796       32.50859029        0.07839730        0.43608839        1.89000000        1.86642839
     8.45290767       32.56664559        0.08195804        0.43453584        1.89000000        1.86403363
     8.66899230       32.62470089        0.08537493        0.43304778        1.89000000        1.86164466
     8.87417246       32.68275619        0.08866827        0.43161510        1.89000000        1.85926144
     9.06991523       32.74081149        0.09185427        0.43023053        1.89000000        1.85688390
     9.25739955       32.79886679        0.09494603        0.42888818        1.89000000        1.85451201
     9.43758814       32.85692209        0.09795437        0.42758321        1.89000000        1.85214572
     9.61127823       32.91497738        0.10088827        0.42631158        1.89000000        1.84978499
     9.77913802       32.97303268        0.10375534        0.42506987        1.89000000        1.84742976
     9.94173356       33.03108798        0.10656204        0.42385518        1.89000000        1.84507999
    10.09954889       33.08914328        0.10931395        0.42266502        1.89000000        1.84273565
    10.25300144       33.14719858        0.11201588        0.42149720        1.89000000        1.84039667
    10.40245393       33.20525388        0.11467205        0.42034983        1.89000000        1.83806303
    10.54822365       33.26330918        0.11728614        0.41922127        1.89000000        1.83573467
    10.69058995       33.32136447        0.11986144        0.41811002        1.89000000        1.83341156
    10.82980007       33.37941977        0.12240083        0.41701478        1.89000000        1.83109364
    10.96607404       33.43747507        0.12490692        0.41593439        1.89000000        1.82878089
    11.09960856       33.49553037        0.12738202        0.41486780        1.89000000        1.82647325
    11.23058028       33.55358567        0.12982823        0.41381405        1.89000000        1.82417070
    11.35914845       33.61164097        0.13224745        0.41277229        1.89000000        1.82187317
    11.48545716       33.66969627        0.13464137        0.41174175        1.89000000        1.81958065
    11.60963730       33.72775157        0.13701158        0.41072172        1.89000000        1.81729308
    11.73180811       33.78580686        0.13935949        0.40971155        1.89000000        1.81501043
    11.85207854       33.84386216        0.14168641        0.40871065        1.89000000        1.81273266
    11.97054846       33.90191746        0.14399354        0.40771847        1.89000000        1.81045974
    12.08730960       33.95997276        0.14628197        0.40673450        1.89000000        1.80819161
    12.20244650       34.01802806        0.14855273        0.40575830        1.89000000        1.80592825
    12.31603719       34.07608336        0.15080676        0.40478941        1.89000000        1.80366962
    12.42815393       34.13413866        0.15304492        0.40382746        1.89000000        1.80141568
    12.53886367       34.19219396        0.15526803        0.40287206        1.89000000        1.79916640
    12.64822866       34.25024925        0.15747683        0.40192287        1.89000000        1.79692173
    12.75630684       34.30830455        0.15967204        0.40097956        1.89000000        1.79468165
    12.86315226       34.36635985        0.16185429        0.40004184        1.89000000        1.79244612
    12.96881541       34.42441515        0.16402421        0.39910942        1.89000000        1.79021510
    13.07334352       34.48247045        0.16618236        0.39818204        1.89000000        1.78798856
    13.17678089       34.54052575        0.16832928        0.39725945        1.89000000        1.78576647
    13.27916906       34.59858105        0.17046547        0.39634142        1.89000000        1.78354879
    13.38054711       34.65663634        0.17259140        0.39542771        1.89000000        1.78133549
    13.48095180       34.71469164        0.17470753        0.39451813        1.89000000        1.77912653
    13.58041779       34.77274694        0.17681427        0.39361248        1.89000000        1.77692189
    13.67897776       34.83080224        0.17891201        0.39271057        1.89000000        1.77472153
    13.77666260       34.88885754        0.18100114        0.39181222        1.89000000        1.77252541
    13.87350153       34.94691284        0.18308199        0.39091727        1.89000000        1.77033352
    13.96952219       35.00496814        0.18515491        0.39002556        1.89000000        1.76814581
    14.06475081       35.06302344        0.18722021        0.38913694        1.89000000        1.76596225
    14.15921224       35.12107873        0.18927820        0.38825127        1.89000000        1.76378282
    14.25293012       35.17913403        0.19132915        0.38736840        1.89000000        1.76160749
    14.34592689       35.23718933        0.19337334        0.38648821        1.89000000        1.75943621
    14.43822390       35.29524463        0.19541103        0.38561057        1.89000000        1.75726898
    14.52984151       35.35329993        0.19744245        0.38473537        1.89000000        1.75510574
    14.62079908       35.41135523        0.19946784        0.38386249        1.89000000        1.75294649
    14.71111511       35.46941053        0.20148743        0.38299183        1.89000000        1.75079118
    14.80080724       35.52746582        0.20350142        0.38212327        1.89000000        1.74863979
    14.88989234       35.58552112        0.20551001        0.38125673        1.89000000        1.74649229
    14.97838652       35.64357642        0.20751341        0.38039210        1.89000000        1.74434866
    15.06630520       35.70163172        0.20951178        0.37952930        1.89000000        1.74220886
    15.15366314       35.75968702        0.21150531        0.37866823        1.89000000        1.74007286
    15.24047448       35.81774232        0.21349416        0.37780882        1.89000000        1.73794065
    15.32675276       35.87579762        0.21547850        0.37695098        1.89000000        1.73581220
    15.41251100       35.93385292        0.21745848        0.37609463        1.89000000        1.73368747
    15.49776166       35.99190821        0.21943424        0.37523970        1.89000000        1.73156644
    15.58251673       36.04996351        0.22140593        0.37438612        1.89000000        1.72944909
    15.66678772       36.10801881        0.22337368        0.37353381        1.89000000        1.72733539
    15.75058569       36.16607411        0.22533762        0.37268272        1.89000000        1.72522532
    15.83392129       36.22412941        0.22729787        0.37183277        1.89000000        1.72311885
    15.91680477       36.28218471        0.22925457        0.37098390        1.89000000        1.72101595
    15.99924599       36.34024001        0.23120781        0.37013606        1.89000000        1.71891660
    16.08125445       36.39829530        0.23315771        0.36928918        1.89000000        1.71682077
    16.16283932       36.45635060        0.23510437        0.36844320        1.89000000        1.71472845
    16.24400943       36.51440590        0.23704790        0.36759808        1.89000000        1.71263961
    16.32477329       36.57246120        0.23898840        0.36675377        1.89000000        1.71055422
    16.40513913       36.63051650        0.24092596        0.36591020        1.89000000        1.70847227
    16.48511489       36.68857180        0.24286066        0.36506733        1.89000000        1.70639372
    16.56470824       36.74662710        0.24479261        0.36422511        1.89000000        1.70431855
    16.64392660       36.80468240        0.24672187        0.36338350        1.89000000        1.70224675
    16.72277712       36.86273769        0.24864854        0.36254244        1.89000000        1.70017829
    16.80126676       36.92079299        0.25057268        0.36170191        1.89000000        1.69811315
    16.87940219       36.97884829        0.25249439        0.36086184        1.89000000        1.69605130
    16.95718992       37.03690359        0.25441372        0.36002221        1.89000000        1.69399273
    17.03463622       37.09495889        0.25633075        0.35918297        1.89000000        1.69193741
    17.11174719       37.15301419        0.25824554        0.35834408        1.89000000        1.68988532
    17.18852872       37.21106949        0.26015816        0.35750551        1.89000000        1.68783644
    17.26498653       37.26912478        0.26206868        0.35666721        1.89000000        1.68579075
    17.34112614       37.32718008        0.26397715        0.35582916        1.89000000        1.68374823
    17.41695296       37.38523538        0.26588364        0.35499131        1.89000000        1.68170886
    17.49247217       37.44329068        0.26778819        0.35415363        1.89000000        1.67967262
    17.56768885       37.50134598        0.26969087        0.35331609        1.89000000        1.67763948
    17.64260789       37.55940128        0.27159173        0.35247866        1.89000000        1.67560944
    17.71723408       37.61745658        0.27349081        0.35164130        1.89000000        1.67358246
    17.79157203       37.67551188        0.27538817        0.35080398        1.89000000        1.67155853
    17.86562627       37.73356717        0.27728385        0.34996668        1.89000000        1.66953763
    17.93940115       37.79162247        0.27917791        0.34912936        1.89000000        1.66751974
    18.01290093       37.84967777        0.28107038        0.34829200        1.89000000        1.66550484
    18.08612974       37.90773307        0.28296130        0.34745456        1.89000000        1.66349291
    18.15909160       37.96578837        0.28485073        0.34661702        1.89000000        1.66148394
    18.23179042       38.02384367        0.28673870        0.34577935        1.89000000        1.65947791
    18.30423002       38.08189897        0.28862525        0.34494152        1.89000000        1.65747479
    18.37641409       38.13995426        0.29051042        0.34410352        1.89000000        1.65547457
    18.44834625       38.19800956        0.29239424        0.34326531        1.89000000        1.65347724
    18.52002999       38.25606486        0.29427675        0.34242687        1.89000000        1.65148277
    18.59146876       38.31412016        0.29615798        0.34158818        1.89000000        1.64949115
    18.66266587       38.37217546        0.29803797        0.34074921        1.89000000        1.64750236
    18.73362458       38.43023076        0.29991675        0.33990994        1.89000000        1.64551638
    18.80434804       38.48828606        0.30179434        0.33907034        1.89000000        1.64353320
    18.87483936       38.54634136        0.30367079        0.33823040        1.89000000        1.64155279
    18.94510153       38.60439665        0.30554612        0.33739008        1.89000000        1.63957515
    19.01513749       38.66245195        0.30742035        0.33654938        1.89000000        1.63760026
    19.08495011       38.72050725        0.30929351        0.33570827        1.89000000        1.63562809
    19.15454216       38.77856255        0.31116564        0.33486673        1.89000000        1.63365864
    19.22391639       38.83661785        0.31303675        0.33402473        1.89000000        1.63169189
    19.29307544       38.89467315        0.31490688        0.33318227        1.89000000        1.62972782
    19.36202192       38.95272845        0.31677604        0.33233931        1.89000000        1.62776642
    19.43075835       39.01078374        0.31864425        0.33149584        1.89000000        1.62580767
    19.49928722       39.06883904        0.32051155        0.33065185        1.89000000        1.62385155
    19.56761094       39.12689434        0.32237795        0.32980730        1.89000000        1.62189805
    19.63573186       39.18494964        0.32424347        0.32896219        1.89000000        1.61994716
    19.70365231       39.24300494        0.32610814        0.32811650        1.89000000        1.61799886
    19.77137453       39.30106024        0.32797196        0.32727020        1.89000000        1.61605314
    19.83890073       39.35911554        0.32983498        0.32642328        1.89000000        1.61410998
    19.90623305       39.41717084        0.33169719        0.32557573        1.89000000        1.61216937
    19.97337361       39.47522613        0.33355862        0.32472753        1.89000000        1.61023128
    20.04032445       39.53328143        0.33541929        0.32387865        1.89000000        1.60829572
    20.10708761       39.59133673        0.33727921        0.32302909        1.89000000        1.60636266
    20.17366504       39.64939203        0.33913839        0.32217883        1.89000000        1.60443209
    20.24005867       39.70744733        0.34099687        0.32132785        1.89000000        1.60250400
    20.30627037       39.76550263        0.34285464        0.32047614        1.89000000        1.60057838
    20.37230200       39.82355793        0.34471173        0.31962367        1.89000000        1.59865520
    20.43815537       39.88161322        0.34656815        0.31877045        1.89000000        1.59673446
    20.50383222       39.93966852        0.34842391        0.31791644        1.89000000        1.59481614
    20.56933430       39.99772382        0.35027902        0.31706164        1.89000000        1.59290023
    20.63466329       40.05577912        0.35213350        0.31620603        1.89000000        1.59098672
    20.69982085       40.11383442        0.35398737        0.31534960        1.89000000        1.58907560
    20.76480860       40.17188972        0.35584063        0.31449233        1.89000000        1.58716685
    20.82962813       40.22994502        0.35769329        0.31363421        1.89000000        1.58526045
    20.89428099       40.28800032        0.35954537        0.31277522        1.89000000        1.58335641
    20.95876870       40.34605561        0.36139687        0.31191536        1.89000000        1.58145469
    21.02309276       40.40411091        0.36324781        0.31105460        1.89000000        1.57955530
    21.08725464       40.46216621        0.36509820        0.31019294        1.89000000        1.57765822
    21.15125575       40.52022151        0.36694804        0.30933036        1.89000000        1.57576344
    21.21509752       40.57827681        0.36879735        0.30846684        1.89000000        1.57387095
    21.27878130       40.63633211        0.37064613        0.30760239        1.89000000        1.57198072
    21.34230845       40.69438741        0.37249440        0.30673697        1.89000000        1.57009277
    21.40568029       40.75244271        0.37434216        0.30587059        1.89000000        1.56820706
    21.46889812       40.81049800        0.37618942        0.30500322        1.89000000        1.56632359
    21.53196320       40.86855330        0.37803618        0.30413486        1.89000000        1.56444236
    21.59487678       40.92660860        0.37988246        0.30326549        1.89000000        1.56256334
    21.65764008       40.98466390        0.38172827        0.30239510        1.89000000        1.56068652
    21.72025431       41.04271920        0.38357360        0.30152368        1.89000000        1.55881191
    21.78272062       41.10077450        0.38541846        0.30065121        1.89000000        1.55693947
    21.84504018       41.15882980        0.38726287        0.29977769        1.89000000        1.55506922
    21.90721411       41.21688509        0.38910683        0.29890311        1.89000000        1.55320112
    21.96924352       41.27494039        0.39095033        0.29802745        1.89000000        1.55133518
    22.03112949       41.33299569        0.39279340        0.29715069        1.89000000        1.54947138
    22.09287310       41.39105099        0.39463603        0.29627284        1.89000000        1.54760971
    22.15447540       41.44910629        0.39647823        0.29539388        1.89000000        1.54575016
    22.21593740       41.50716159        0.39832001        0.29451379        1.89000000        1.54389273
    22.27726011       41.56521689        0.40016136        0.29363257        1.89000000        1.54203740
    22.33844452       41.62327219        0.40200230        0.29275020        1.89000000        1.54018416
    22.39949161       41.68132748        0.40384282        0.29186668        1.89000000        1.53833300
    22.46040232       41.73938278        0.40568293        0.29098200        1.89000000        1.53648391
    22.52117759       41.79743808        0.40752264        0.29009613        1.89000000        1.53463689
    22.58181834       41.85549338        0.40936194        0.28920908        1.89000000        1.53279192
    22.64232547       41.91354868        0.41120085        0.28832083        1.89000000        1.53094899
    22.70269985       41.97160398        0.41303936        0.28743137        1.89000000        1.52910809
    22.76294237       42.02965928        0.41487748        0.28654069        1.89000000        1.52726923
    22.82305386       42.08771457        0.41671521        0.28564879        1.89000000        1.52543237
    22.88303517       42.14576987        0.41855255        0.28475564        1.89000000        1.52359753
    22.94288712       42.20382517        0.42038951        0.28386125        1.89000000        1.52176468
    23.00261052       42.26188047        0.42222608        0.28296560        1.89000000        1.51993382
    23.06220615       42.31993577        0.42406228        0.28206868        1.89000000        1.51810494
    23.12167479       42.37799107        0.42589809        0.28117048        1.89000000        1.51627803
