#  Theta paroi en deg Angle Choc en deg       Kp           Inverse Mach       Mach amont       Mach aval
     0.00000000        4.78019185        0.00000000        0.91666667       12.00000000
     0.60623981        4.78274844        0.00053088        0.91602188       12.00000000       11.99779251
     0.73587991        4.78632557        0.00072987        0.91578728       12.00000000       11.99470712
     0.87446276        4.79296430        0.00096734        0.91551211       12.00000000       11.98899108
     1.02547569        4.80470569        0.00125333        0.91518733       12.00000000       11.97891341
     1.18512512        4.82359082        0.00158499        0.91481933       12.00000000       11.96278842
     1.35180515        4.85166076        0.00196222        0.91441144       12.00000000       11.93900886
     1.52584993        4.89095656        0.00238905        0.91396275       12.00000000       11.90608516
     1.70857708        4.94351929        0.00287289        0.91346944       12.00000000       11.86268566
     1.90173948        5.01139003        0.00342391        0.91292575       12.00000000       11.80767159
     2.10726393        5.09660984        0.00405489        0.91232453       12.00000000       11.74011986
     2.28835085        5.18182965        0.00464921        0.91177684       12.00000000       11.67413597
     2.45355810        5.26704945        0.00522298        0.91126333       12.00000000       11.60959414
     2.60750230        5.35226926        0.00578491        0.91077337       12.00000000       11.54638139
     2.75298137        5.43748907        0.00634031        0.91030045       12.00000000       11.48439602
     2.89182965        5.52270888        0.00689259        0.90984024       12.00000000       11.42354636
     3.02532054        5.60792869        0.00744413        0.90938971       12.00000000       11.36374969
     3.15437696        5.69314850        0.00799661        0.90894666       12.00000000       11.30493121
     3.27969137        5.77836830        0.00855128        0.90850941       12.00000000       11.24702324
     3.40179772        5.86358811        0.00910909        0.90807667       12.00000000       11.18996444
     3.52111740        5.94880792        0.00967076        0.90764741       12.00000000       11.13369918
     3.63798933        6.03402773        0.01023688        0.90722081       12.00000000       11.07817695
     3.75269080        6.11924754        0.01080790        0.90679620       12.00000000       11.02335182
     3.86545165        6.20446734        0.01138419        0.90637300       12.00000000       10.96918204
     3.97646513        6.28968715        0.01196606        0.90595075       12.00000000       10.91562957
     4.08589512        6.37490696        0.01255376        0.90552906       12.00000000       10.86265978
     4.19388232        6.46012677        0.01314750        0.90510758       12.00000000       10.81024108
     4.30054823        6.54534658        0.01374745        0.90468602       12.00000000       10.75834467
     4.40599887        6.63056639        0.01435376        0.90426413       12.00000000       10.70694423
     4.51032721        6.71578619        0.01496655        0.90384170       12.00000000       10.65601575
     4.61361541        6.80100600        0.01558594        0.90341852       12.00000000       10.60553729
     4.71593644        6.88622581        0.01621202        0.90299444       12.00000000       10.55548879
     4.81735545        6.97144562        0.01684486        0.90256931       12.00000000       10.50585189
     4.91793095        7.05666543        0.01748454        0.90214299       12.00000000       10.45660982
     5.01771560        7.14188523        0.01813110        0.90171538       12.00000000       10.40774722
     5.11675714        7.22710504        0.01878462        0.90128638       12.00000000       10.35925002
     5.21509887        7.31232485        0.01944512        0.90085589       12.00000000       10.31110536
     5.31278030        7.39754466        0.02011264        0.90042384       12.00000000       10.26330143
     5.40983757        7.48276447        0.02078723        0.89999016       12.00000000       10.21582745
     5.50630384        7.56798428        0.02146891        0.89955478       12.00000000       10.16867351
     5.60220954        7.65320408        0.02215771        0.89911765       12.00000000       10.12183052
     5.69758287        7.73842389        0.02285364        0.89867873       12.00000000       10.07529019
     5.79244979        7.82364370        0.02355673        0.89823796       12.00000000       10.02904487
     5.88683439        7.90886351        0.02426700        0.89779532       12.00000000        9.98308758
     5.98075911        7.99408332        0.02498446        0.89735077       12.00000000        9.93741189
     6.07424472        8.07930312        0.02570912        0.89690427       12.00000000        9.89201191
     6.16731069        8.16452293        0.02644099        0.89645582       12.00000000        9.84688224
     6.25997515        8.24974274        0.02718009        0.89600537       12.00000000        9.80201792
     6.35225509        8.33496255        0.02792642        0.89555291       12.00000000        9.75741437
     6.44416641        8.42018236        0.02867998        0.89509844       12.00000000        9.71306742
     6.53572410        8.50540216        0.02944079        0.89464192       12.00000000        9.66897321
     6.62694215        8.59062197        0.03020884        0.89418336       12.00000000        9.62512819
     6.71783381        8.67584178        0.03098414        0.89372274       12.00000000        9.58152911
     6.80841157        8.76106159        0.03176669        0.89326006       12.00000000        9.53817296
     6.89868716        8.84628140        0.03255650        0.89279530       12.00000000        9.49505697
     6.98867170        8.93150121        0.03335356        0.89232847       12.00000000        9.45217859
     7.07837574        9.01672101        0.03415787        0.89185957       12.00000000        9.40953545
     7.16780919        9.10194082        0.03496944        0.89138858       12.00000000        9.36712537
     7.25698154        9.18716063        0.03578826        0.89091551       12.00000000        9.32494633
     7.34590173        9.27238044        0.03661434        0.89044036       12.00000000        9.28299646
     7.43457826        9.35760025        0.03744766        0.88996314       12.00000000        9.24127401
     7.52301924        9.44282005        0.03828823        0.88948384       12.00000000        9.19977736
     7.61123237        9.52803986        0.03913605        0.88900246       12.00000000        9.15850501
     7.69922495        9.61325967        0.03999110        0.88851903       12.00000000        9.11745552
     7.78700402        9.69847948        0.04085340        0.88803352       12.00000000        9.07662759
     7.87457620        9.78369929        0.04172292        0.88754596       12.00000000        9.03601995
     7.96194787        9.86891910        0.04259968        0.88705635       12.00000000        8.99563145
     8.04912511        9.95413890        0.04348366        0.88656470       12.00000000        8.95546096
     8.13611374       10.03935871        0.04437486        0.88607101       12.00000000        8.91550744
     8.22291930       10.12457852        0.04527328        0.88557528       12.00000000        8.87576989
     8.30954710       10.20979833        0.04617891        0.88507754       12.00000000        8.83624733
     8.39600224       10.29501814        0.04709174        0.88457778       12.00000000        8.79693887
     8.48228961       10.38023794        0.04801177        0.88407601       12.00000000        8.75784361
     8.56841389       10.46545775        0.04893899        0.88357225       12.00000000        8.71896070
     8.65437957       10.55067756        0.04987340        0.88306650       12.00000000        8.68028932
     8.74019095       10.63589737        0.05081499        0.88255877       12.00000000        8.64182866
     8.82585217       10.72111718        0.05176376        0.88204907       12.00000000        8.60357795
     8.91136719       10.80633698        0.05271969        0.88153740       12.00000000        8.56553640
     8.99673988       10.89155679        0.05368278        0.88102379       12.00000000        8.52770327
     9.08197387       10.97677660        0.05465303        0.88050824       12.00000000        8.49007781
     9.16707272       11.06199641        0.05563042        0.87999076       12.00000000        8.45265929
     9.25203983       11.14721622        0.05661496        0.87947135       12.00000000        8.41544698
     9.33687849       11.23243603        0.05760662        0.87895004       12.00000000        8.37844016
     9.42159183       11.31765583        0.05860541        0.87842682       12.00000000        8.34163810
     9.50618294       11.40287564        0.05961131        0.87790172       12.00000000        8.30504008
     9.59065471       11.48809545        0.06062433        0.87737473       12.00000000        8.26864538
     9.67501000       11.57331526        0.06164444        0.87684587       12.00000000        8.23245328
     9.75925154       11.65853507        0.06267165        0.87631515       12.00000000        8.19646307
     9.84338197       11.74375487        0.06370594        0.87578259       12.00000000        8.16067400
     9.92740383       11.82897468        0.06474731        0.87524818       12.00000000        8.12508535
    10.01131958       11.91419449        0.06579575        0.87471194       12.00000000        8.08969639
    10.09513162       11.99941430        0.06685125        0.87417388       12.00000000        8.05450636
    10.17884222       12.08463411        0.06791380        0.87363402       12.00000000        8.01951454
    10.26245363       12.16985392        0.06898339        0.87309235       12.00000000        7.98472015
    10.34596797       12.25507372        0.07006002        0.87254889       12.00000000        7.95012244
    10.42938734       12.34029353        0.07114367        0.87200366       12.00000000        7.91572064
    10.51271376       12.42551334        0.07223434        0.87145665       12.00000000        7.88151397
    10.59594917       12.51073315        0.07333201        0.87090788       12.00000000        7.84750166
    10.67909545       12.59595296        0.07443669        0.87035736       12.00000000        7.81368290
    10.76215443       12.68117276        0.07554835        0.86980510       12.00000000        7.78005691
    10.84512790       12.76639257        0.07666699        0.86925111       12.00000000        7.74662286
    10.92801756       12.85161238        0.07779260        0.86869540       12.00000000        7.71337996
    11.01082507       12.93683219        0.07892517        0.86813797       12.00000000        7.68032736
    11.09355207       13.02205200        0.08006470        0.86757884       12.00000000        7.64746425
    11.17620009       13.10727180        0.08121116        0.86701802       12.00000000        7.61478978
    11.25877067       13.19249161        0.08236456        0.86645551       12.00000000        7.58230311
    11.34126528       13.27771142        0.08352488        0.86589132       12.00000000        7.55000338
    11.42368534       13.36293123        0.08469211        0.86532547       12.00000000        7.51788972
    11.50603225       13.44815104        0.08586624        0.86475795       12.00000000        7.48596127
    11.58830735       13.53337085        0.08704726        0.86418879       12.00000000        7.45421715
    11.67051196       13.61859065        0.08823517        0.86361798       12.00000000        7.42265648
    11.75264734       13.70381046        0.08942995        0.86304554       12.00000000        7.39127836
    11.83471474       13.78903027        0.09063159        0.86247147       12.00000000        7.36008190
    11.91671533       13.87425008        0.09184008        0.86189579       12.00000000        7.32906620
    11.99865030       13.95946989        0.09305541        0.86131849       12.00000000        7.29823034
    12.08052079       14.04468969        0.09427758        0.86073959       12.00000000        7.26757341
    12.16232788       14.12990950        0.09550656        0.86015910       12.00000000        7.23709449
    12.24407265       14.21512931        0.09674235        0.85957703       12.00000000        7.20679265
    12.32575617       14.30034912        0.09798494        0.85899337       12.00000000        7.17666696
    12.40737941       14.38556893        0.09923432        0.85840814       12.00000000        7.14671649
    12.48894339       14.47078874        0.10049048        0.85782135       12.00000000        7.11694029
    12.57044905       14.55600854        0.10175340        0.85723300       12.00000000        7.08733743
    12.65189734       14.64122835        0.10302308        0.85664311       12.00000000        7.05790694
    12.73328916       14.72644816        0.10429950        0.85605166       12.00000000        7.02864788
    12.81462540       14.81166797        0.10558265        0.85545869       12.00000000        6.99955930
    12.89590693       14.89688778        0.10687253        0.85486418       12.00000000        6.97064022
    12.97713458       14.98210758        0.10816911        0.85426815       12.00000000        6.94188970
    13.05830917       15.06732739        0.10947240        0.85367060       12.00000000        6.91330677
    13.13943151       15.15254720        0.11078238        0.85307155       12.00000000        6.88489046
    13.22050236       15.23776701        0.11209903        0.85247098       12.00000000        6.85663979
    13.30152248       15.32298682        0.11342234        0.85186893       12.00000000        6.82855381
    13.38249261       15.40820663        0.11475231        0.85126537       12.00000000        6.80063154
    13.46341346       15.49342643        0.11608892        0.85066034       12.00000000        6.77287200
    13.54428576       15.57864624        0.11743217        0.85005382       12.00000000        6.74527422
    13.62511016       15.66386605        0.11878203        0.84944583       12.00000000        6.71783722
    13.70588734       15.74908586        0.12013849        0.84883637       12.00000000        6.69056003
    13.78661795       15.83430567        0.12150156        0.84822544       12.00000000        6.66344167
    13.86730262       15.91952547        0.12287120        0.84761306       12.00000000        6.63648116
    13.94794197       16.00474528        0.12424742        0.84699922       12.00000000        6.60967753
    14.02853661       16.08996509        0.12563019        0.84638393       12.00000000        6.58302979
    14.10908710       16.17518490        0.12701951        0.84576720       12.00000000        6.55653698
    14.18959405       16.26040471        0.12841537        0.84514904       12.00000000        6.53019812
    14.27005800       16.34562451        0.12981775        0.84452943       12.00000000        6.50401222
    14.35047949       16.43084432        0.13122664        0.84390840       12.00000000        6.47797832
    14.43085907       16.51606413        0.13264202        0.84328594       12.00000000        6.45209545
    14.51119724       16.60128394        0.13406389        0.84266207       12.00000000        6.42636263
    14.59149453       16.68650375        0.13549224        0.84203677       12.00000000        6.40077889
    14.67175142       16.77172356        0.13692704        0.84141007       12.00000000        6.37534327
    14.75196840       16.85694336        0.13836829        0.84078196       12.00000000        6.35005480
    14.83214594       16.94216317        0.13981598        0.84015244       12.00000000        6.32491251
    14.91228450       17.02738298        0.14127009        0.83952152       12.00000000        6.29991544
    14.99238454       17.11260279        0.14273061        0.83888921       12.00000000        6.27506263
    15.07244648       17.19782260        0.14419752        0.83825550       12.00000000        6.25035314
    15.15247077       17.28304240        0.14567082        0.83762040       12.00000000        6.22578599
    15.23245781       17.36826221        0.14715049        0.83698392       12.00000000        6.20136024
    15.31240802       17.45348202        0.14863651        0.83634606       12.00000000        6.17707494
    15.39232180       17.53870183        0.15012889        0.83570682       12.00000000        6.15292915
    15.47219954       17.62392164        0.15162759        0.83506620       12.00000000        6.12892192
    15.55204161       17.70914145        0.15313261        0.83442420       12.00000000        6.10505231
    15.63184841       17.79436125        0.15464394        0.83378084       12.00000000        6.08131939
    15.71162027       17.87958106        0.15616155        0.83313611       12.00000000        6.05772223
    15.79135758       17.96480087        0.15768545        0.83249002       12.00000000        6.03425989
    15.87106066       18.05002068        0.15921561        0.83184256       12.00000000        6.01093145
    15.95072987       18.13524049        0.16075202        0.83119374       12.00000000        5.98773599
    16.03036552       18.22046029        0.16229467        0.83054357       12.00000000        5.96467259
    16.10996795       18.30568010        0.16384355        0.82989205       12.00000000        5.94174034
    16.18953748       18.39089991        0.16539863        0.82923917       12.00000000        5.91893832
    16.26907440       18.47611972        0.16695991        0.82858494       12.00000000        5.89626564
    16.34857903       18.56133953        0.16852738        0.82792936       12.00000000        5.87372140
    16.42805166       18.64655933        0.17010101        0.82727244       12.00000000        5.85130468
    16.50749258       18.73177914        0.17168080        0.82661417       12.00000000        5.82901461
    16.58690207       18.81699895        0.17326673        0.82595457       12.00000000        5.80685030
    16.66628040       18.90221876        0.17485879        0.82529362       12.00000000        5.78481085
    16.74562786       18.98743857        0.17645696        0.82463133       12.00000000        5.76289540
    16.82494469       19.07265838        0.17806123        0.82396771       12.00000000        5.74110306
    16.90423116       19.15787818        0.17967159        0.82330275       12.00000000        5.71943297
    16.98348752       19.24309799        0.18128802        0.82263645       12.00000000        5.69788426
    17.06271401       19.32831780        0.18291050        0.82196883       12.00000000        5.67645608
    17.14191088       19.41353761        0.18453903        0.82129987       12.00000000        5.65514755
    17.22107835       19.49875742        0.18617358        0.82062958       12.00000000        5.63395785
    17.30021666       19.58397722        0.18781415        0.81995796       12.00000000        5.61288611
    17.37932603       19.66919703        0.18946072        0.81928502       12.00000000        5.59193149
    17.45840669       19.75441684        0.19111327        0.81861075       12.00000000        5.57109317
    17.53745884       19.83963665        0.19277179        0.81793515       12.00000000        5.55037031
    17.61648269       19.92485646        0.19443627        0.81725822       12.00000000        5.52976208
    17.69547846       20.01007627        0.19610668        0.81657997       12.00000000        5.50926767
    17.77444632       20.09529607        0.19778303        0.81590040       12.00000000        5.48888624
