#  Theta paroi en deg Angle Choc en deg       Kp           Inverse Mach       Mach amont       Mach aval
     0.00000000       47.79455360        0.00000000        0.25925926        1.35000000
     2.18768091       47.79581976        0.01040400        0.25399011        1.35000000        1.34996624
     2.53963616       47.79759135        0.01346191        0.25243705        1.35000000        1.34991900
     2.95490147       47.80087920        0.01745977        0.25040354        1.35000000        1.34983135
     3.42380657       47.80669418        0.02245001        0.24786030        1.35000000        1.34967634
     3.91863330       47.81604711        0.02823020        0.24490748        1.35000000        1.34942708
     4.42175866       47.82994886        0.03461752        0.24163557        1.35000000        1.34905672
     4.92466236       47.84941026        0.04148941        0.23810471        1.35000000        1.34853852
     5.42381459       47.87544216        0.04876960        0.23435165        1.35000000        1.34784586
     5.91813038       47.90905541        0.05641200        0.23039772        1.35000000        1.34695229
     6.40768505       47.95126086        0.06438997        0.22625434        1.35000000        1.34583164
     6.81017474       47.99346630        0.07124494        0.22268093        1.35000000        1.34471244
     7.15590182       48.03567175        0.07734117        0.21949250        1.35000000        1.34359470
     7.46130957       48.07787719        0.08288339        0.21658502        1.35000000        1.34247842
     7.73640620       48.12008264        0.08799969        0.21389341        1.35000000        1.34136359
     7.98777503       48.16228809        0.09277631        0.21137382        1.35000000        1.34025020
     8.21999714       48.20449353        0.09727443        0.20899515        1.35000000        1.33913826
     8.43639961       48.24669898        0.10153923        0.20673442        1.35000000        1.33802775
     8.63948144       48.28890443        0.10560517        0.20457411        1.35000000        1.33691867
     8.83117137       48.33110987        0.10949921        0.20250049        1.35000000        1.33581102
     9.01299183       48.37331532        0.11324288        0.20050261        1.35000000        1.33470480
     9.18616729       48.41552077        0.11685368        0.19857158        1.35000000        1.33359999
     9.35169859       48.45772621        0.12034607        0.19670002        1.35000000        1.33249660
     9.51041515       48.49993166        0.12373214        0.19488178        1.35000000        1.33139462
     9.66301261       48.54213711        0.12702211        0.19311167        1.35000000        1.33029405
     9.81008071       48.58434255        0.13022473        0.19138522        1.35000000        1.32919489
     9.95212405       48.62654800        0.13334754        0.18969860        1.35000000        1.32809712
    10.08957805       48.66875344        0.13639707        0.18804848        1.35000000        1.32700075
    10.22282127       48.71095889        0.13937906        0.18643194        1.35000000        1.32590577
    10.35218506       48.75316434        0.14229855        0.18484640        1.35000000        1.32481217
    10.47796125       48.79536978        0.14516002        0.18328960        1.35000000        1.32371997
    10.60040828       48.83757523        0.14796743        0.18175950        1.35000000        1.32262913
    10.71975626       48.87978068        0.15072437        0.18025429        1.35000000        1.32153968
    10.83621100       48.92198612        0.15343402        0.17877234        1.35000000        1.32045160
    10.94995737       48.96419157        0.15609928        0.17731217        1.35000000        1.31936488
    11.06116213       49.00639702        0.15872276        0.17587245        1.35000000        1.31827953
    11.16997625       49.04860246        0.16130685        0.17445196        1.35000000        1.31719554
    11.27653688       49.09080791        0.16385371        0.17304959        1.35000000        1.31611290
    11.38096903       49.13301335        0.16636534        0.17166434        1.35000000        1.31503162
    11.48338697       49.17521880        0.16884356        0.17029528        1.35000000        1.31395169
    11.58389547       49.21742425        0.17129005        0.16894153        1.35000000        1.31287310
    11.68259082       49.25962969        0.17370634        0.16760233        1.35000000        1.31179585
    11.77956178       49.30183514        0.17609388        0.16627693        1.35000000        1.31071995
    11.87489030       49.34404059        0.17845399        0.16496466        1.35000000        1.30964537
    11.96865228       49.38624603        0.18078789        0.16366488        1.35000000        1.30857213
    12.06091809       49.42845148        0.18309675        0.16237703        1.35000000        1.30750021
    12.15175318       49.47065693        0.18538161        0.16110054        1.35000000        1.30642962
    12.24121850       49.51286237        0.18764348        0.15983491        1.35000000        1.30536035
    12.32937088       49.55506782        0.18988329        0.15857967        1.35000000        1.30429239
    12.41626344       49.59727327        0.19210191        0.15733436        1.35000000        1.30322574
    12.50194596       49.63947871        0.19430017        0.15609857        1.35000000        1.30216041
    12.58646501       49.68168416        0.19647883        0.15487190        1.35000000        1.30109638
    12.66986438       49.72388960        0.19863862        0.15365398        1.35000000        1.30003365
    12.75218524       49.76609505        0.20078022        0.15244446        1.35000000        1.29897223
    12.83346633       49.80830050        0.20290427        0.15124301        1.35000000        1.29791210
    12.91374418       49.85050594        0.20501139        0.15004933        1.35000000        1.29685326
    12.99305325       49.89271139        0.20710215        0.14886310        1.35000000        1.29579571
    13.07142612       49.93491684        0.20917708        0.14768406        1.35000000        1.29473944
    13.14889362       49.97712228        0.21123672        0.14651194        1.35000000        1.29368446
    13.22548492       50.01932773        0.21328155        0.14534649        1.35000000        1.29263076
    13.30122770       50.06153318        0.21531203        0.14418747        1.35000000        1.29157833
    13.37614821       50.10373862        0.21732861        0.14303465        1.35000000        1.29052717
    13.45027140       50.14594407        0.21933171        0.14188781        1.35000000        1.28947729
    13.52362098       50.18814951        0.22132172        0.14074675        1.35000000        1.28842867
    13.59621952       50.23035496        0.22329903        0.13961127        1.35000000        1.28738131
    13.66808852       50.27256041        0.22526400        0.13848119        1.35000000        1.28633521
    13.73924846       50.31476585        0.22721699        0.13735633        1.35000000        1.28529037
    13.80971890       50.35697130        0.22915831        0.13623651        1.35000000        1.28424679
    13.87951850       50.39917675        0.23108830        0.13512157        1.35000000        1.28320445
    13.94866509       50.44138219        0.23300725        0.13401135        1.35000000        1.28216336
    14.01717574       50.48358764        0.23491545        0.13290570        1.35000000        1.28112351
    14.08506675       50.52579309        0.23681318        0.13180449        1.35000000        1.28008491
    14.15235375       50.56799853        0.23870071        0.13070757        1.35000000        1.27904755
    14.21905171       50.61020398        0.24057830        0.12961480        1.35000000        1.27801142
    14.28517499       50.65240943        0.24244619        0.12852607        1.35000000        1.27697652
    14.35073735       50.69461487        0.24430461        0.12744124        1.35000000        1.27594285
    14.41575201       50.73682032        0.24615379        0.12636021        1.35000000        1.27491041
    14.48023167       50.77902576        0.24799396        0.12528286        1.35000000        1.27387919
    14.54418853       50.82123121        0.24982531        0.12420907        1.35000000        1.27284919
    14.60763433       50.86343666        0.25164806        0.12313875        1.35000000        1.27182041
    14.67058034       50.90564210        0.25346239        0.12207179        1.35000000        1.27079284
    14.73303744       50.94784755        0.25526849        0.12100810        1.35000000        1.26976648
    14.79501608       50.99005300        0.25706655        0.11994758        1.35000000        1.26874134
    14.85652636       51.03225844        0.25885673        0.11889014        1.35000000        1.26771740
    14.91757799       51.07446389        0.26063920        0.11783570        1.35000000        1.26669466
    14.97818035       51.11666934        0.26241413        0.11678416        1.35000000        1.26567313
    15.03834248       51.15887478        0.26418168        0.11573545        1.35000000        1.26465279
    15.09807309       51.20108023        0.26594198        0.11468949        1.35000000        1.26363365
    15.15738066       51.24328568        0.26769520        0.11364620        1.35000000        1.26261570
    15.21627330       51.28549112        0.26944146        0.11260550        1.35000000        1.26159894
    15.27475889       51.32769657        0.27118091        0.11156733        1.35000000        1.26058336
    15.33284505       51.36990201        0.27291367        0.11053162        1.35000000        1.25956898
    15.39053914       51.41210746        0.27463988        0.10949830        1.35000000        1.25855577
    15.44784829       51.45431291        0.27635966        0.10846730        1.35000000        1.25754374
    15.50477939       51.49651835        0.27807312        0.10743856        1.35000000        1.25653289
    15.56133912       51.53872380        0.27978039        0.10641202        1.35000000        1.25552321
    15.61753396       51.58092925        0.28148157        0.10538763        1.35000000        1.25451471
    15.67337017       51.62313469        0.28317677        0.10436531        1.35000000        1.25350737
    15.72885383       51.66534014        0.28486611        0.10334502        1.35000000        1.25250120
    15.78399084       51.70754559        0.28654967        0.10232671        1.35000000        1.25149619
    15.83878690       51.74975103        0.28822757        0.10131031        1.35000000        1.25049234
    15.89324759       51.79195648        0.28989989        0.10029579        1.35000000        1.24948966
    15.94737825       51.83416192        0.29156674        0.09928308        1.35000000        1.24848813
    16.00118414       51.87636737        0.29322819        0.09827214        1.35000000        1.24748775
    16.05467032       51.91857282        0.29488435        0.09726292        1.35000000        1.24648852
    16.10784173       51.96077826        0.29653528        0.09625539        1.35000000        1.24549045
    16.16070316       52.00298371        0.29818109        0.09524948        1.35000000        1.24449351
    16.21325925       52.04518916        0.29982184        0.09424516        1.35000000        1.24349773
    16.26551455       52.08739460        0.30145762        0.09324240        1.35000000        1.24250308
    16.31747346       52.12960005        0.30308851        0.09224113        1.35000000        1.24150958
    16.36914025       52.17180550        0.30471457        0.09124134        1.35000000        1.24051721
    16.42051909       52.21401094        0.30633588        0.09024297        1.35000000        1.23952597
    16.47161405       52.25621639        0.30795251        0.08924598        1.35000000        1.23853587
    16.52242905       52.29842184        0.30956453        0.08825035        1.35000000        1.23754690
    16.57296796       52.34062728        0.31117201        0.08725604        1.35000000        1.23655906
    16.62323452       52.38283273        0.31277501        0.08626301        1.35000000        1.23557234
    16.67323236       52.42503817        0.31437359        0.08527122        1.35000000        1.23458675
    16.72296505       52.46724362        0.31596781        0.08428064        1.35000000        1.23360227
    16.77243604       52.50944907        0.31755774        0.08329124        1.35000000        1.23261892
    16.82164871       52.55165451        0.31914344        0.08230299        1.35000000        1.23163668
    16.87060637       52.59385996        0.32072496        0.08131586        1.35000000        1.23065555
    16.91931219       52.63606541        0.32230235        0.08032981        1.35000000        1.22967554
    16.96776933       52.67827085        0.32387567        0.07934482        1.35000000        1.22869664
    17.01598083       52.72047630        0.32544498        0.07836086        1.35000000        1.22771885
    17.06394967       52.76268175        0.32701032        0.07737789        1.35000000        1.22674216
    17.11167876       52.80488719        0.32857174        0.07639590        1.35000000        1.22576658
    17.15917093       52.84709264        0.33012930        0.07541485        1.35000000        1.22479209
    17.20642896       52.88929808        0.33168304        0.07443471        1.35000000        1.22381871
    17.25345555       52.93150353        0.33323301        0.07345547        1.35000000        1.22284643
    17.30025335       52.97370898        0.33477926        0.07247709        1.35000000        1.22187524
    17.34682493       53.01591442        0.33632182        0.07149955        1.35000000        1.22090514
    17.39317281       53.05811987        0.33786075        0.07052283        1.35000000        1.21993614
    17.43929945       53.10032532        0.33939608        0.06954691        1.35000000        1.21896822
    17.48520728       53.14253076        0.34092786        0.06857175        1.35000000        1.21800139
    17.53089863       53.18473621        0.34245612        0.06759734        1.35000000        1.21703565
    17.57637580       53.22694166        0.34398091        0.06662365        1.35000000        1.21607099
    17.62164105       53.26914710        0.34550227        0.06565067        1.35000000        1.21510741
    17.66669657       53.31135255        0.34702023        0.06467837        1.35000000        1.21414492
    17.71154451       53.35355800        0.34853483        0.06370673        1.35000000        1.21318350
    17.75618699       53.39576344        0.35004610        0.06273572        1.35000000        1.21222315
    17.80062604       53.43796889        0.35155409        0.06176534        1.35000000        1.21126388
    17.84486369       53.48017433        0.35305882        0.06079556        1.35000000        1.21030568
    17.88890191       53.52237978        0.35456033        0.05982636        1.35000000        1.20934855
    17.93274262       53.56458523        0.35605865        0.05885772        1.35000000        1.20839249
    17.97638772       53.60679067        0.35755382        0.05788963        1.35000000        1.20743750
    18.01983904       53.64899612        0.35904587        0.05692206        1.35000000        1.20648357
    18.06309840       53.69120157        0.36053482        0.05595500        1.35000000        1.20553070
    18.10616757       53.73340701        0.36202071        0.05498843        1.35000000        1.20457890
    18.14904829       53.77561246        0.36350357        0.05402233        1.35000000        1.20362815
    18.19174224       53.81781791        0.36498342        0.05305669        1.35000000        1.20267846
    18.23425110       53.86002335        0.36646030        0.05209149        1.35000000        1.20172983
    18.27657649       53.90222880        0.36793423        0.05112671        1.35000000        1.20078225
    18.31872001       53.94443424        0.36940524        0.05016234        1.35000000        1.19983572
    18.36068323       53.98663969        0.37087335        0.04919837        1.35000000        1.19889024
    18.40246768       54.02884514        0.37233860        0.04823477        1.35000000        1.19794581
    18.44407485       54.07105058        0.37380100        0.04727153        1.35000000        1.19700243
    18.48550624       54.11325603        0.37526059        0.04630864        1.35000000        1.19606010
    18.52676327       54.15546148        0.37671738        0.04534608        1.35000000        1.19511881
    18.56784736       54.19766692        0.37817141        0.04438384        1.35000000        1.19417856
    18.60875990       54.23987237        0.37962269        0.04342191        1.35000000        1.19323935
    18.64950226       54.28207782        0.38107124        0.04246027        1.35000000        1.19230118
    18.69007575       54.32428326        0.38251710        0.04149891        1.35000000        1.19136404
    18.73048170       54.36648871        0.38396028        0.04053781        1.35000000        1.19042794
    18.77072139       54.40869416        0.38540080        0.03957696        1.35000000        1.18949288
    18.81079608       54.45089960        0.38683868        0.03861636        1.35000000        1.18855885
    18.85070700       54.49310505        0.38827395        0.03765598        1.35000000        1.18762585
    18.89045535       54.53531049        0.38970663        0.03669581        1.35000000        1.18669388
    18.93004235       54.57751594        0.39113673        0.03573585        1.35000000        1.18576293
    18.96946913       54.61972139        0.39256428        0.03477608        1.35000000        1.18483302
    19.00873686       54.66192683        0.39398929        0.03381648        1.35000000        1.18390412
    19.04784666       54.70413228        0.39541178        0.03285706        1.35000000        1.18297625
    19.08679962       54.74633773        0.39683178        0.03189779        1.35000000        1.18204941
    19.12559683       54.78854317        0.39824929        0.03093867        1.35000000        1.18112358
    19.16423935       54.83074862        0.39966434        0.02997968        1.35000000        1.18019877
    19.20272823       54.87295407        0.40107695        0.02902081        1.35000000        1.17927498
    19.24106448       54.91515951        0.40248713        0.02806206        1.35000000        1.17835220
    19.27924912       54.95736496        0.40389489        0.02710341        1.35000000        1.17743044
    19.31728314       54.99957041        0.40530026        0.02614486        1.35000000        1.17650969
    19.35516749       55.04177585        0.40670325        0.02518639        1.35000000        1.17558996
    19.39290312       55.08398130        0.40810388        0.02422799        1.35000000        1.17467123
    19.43049099       55.12618674        0.40950215        0.02326965        1.35000000        1.17375351
    19.46793200       55.16839219        0.41089810        0.02231137        1.35000000        1.17283680
    19.50522704       55.21059764        0.41229172        0.02135314        1.35000000        1.17192110
    19.54237702       55.25280308        0.41368304        0.02039494        1.35000000        1.17100640
    19.57938280       55.29500853        0.41507207        0.01943677        1.35000000        1.17009270
    19.61624523       55.33721398        0.41645883        0.01847861        1.35000000        1.16918001
    19.65296516       55.37941942        0.41784332        0.01752047        1.35000000        1.16826831
