#  Theta paroi en deg Angle Choc en deg       Kp           Inverse Mach       Mach amont       Mach aval
     0.00000000       15.25752329        0.00000000        0.73684211        3.80000000
     1.37707260       15.25976556        0.00310997        0.73526851        3.80000000        3.79975537
     1.66605527       15.26290290        0.00426853        0.73469097        3.80000000        3.79941319
     1.97482127       15.26872543        0.00565070        0.73400792        3.80000000        3.79877843
     2.30731056       15.27902329        0.00729311        0.73320450        3.80000000        3.79765673
     2.65127147       15.29558659        0.00914930        0.73230696        3.80000000        3.79585506
     2.99976153       15.32020547        0.01118394        0.73133551        3.80000000        3.79318283
     3.35057912       15.35467006        0.01338176        0.73030020        3.80000000        3.78945320
     3.70397740       15.40077048        0.01574212        0.72920401        3.80000000        3.78448477
     4.06132289       15.46029686        0.01827408        0.72804549        3.80000000        3.77810333
     4.42445047       15.53503934        0.02099344        0.72682040        3.80000000        3.77014383
     4.73116853       15.60978181        0.02340362        0.72575050        3.80000000        3.76224217
     5.00130381       15.68452429        0.02561137        0.72478302        3.80000000        3.75439695
     5.24555353       15.75926677        0.02767567        0.72388884        3.80000000        3.74660683
     5.47040141       15.83400925        0.02963294        0.72304998        3.80000000        3.73887050
     5.68009851       15.90875172        0.03150738        0.72225450        3.80000000        3.73118669
     5.87759511       15.98349420        0.03331598        0.72149401        3.80000000        3.72355416
     6.06502913       16.05823668        0.03507115        0.72076236        3.80000000        3.71597173
     6.24400322       16.13297915        0.03678227        0.72005490        3.80000000        3.70843822
     6.41575223       16.20772163        0.03845662        0.71936805        3.80000000        3.70095252
     6.58124933       16.28246411        0.04009993        0.71869892        3.80000000        3.69351354
     6.74127613       16.35720658        0.04171686        0.71804521        3.80000000        3.68612021
     6.89647069       16.43194906        0.04331121        0.71740503        3.80000000        3.67877150
     7.04736110       16.50669154        0.04488611        0.71677678        3.80000000        3.67146642
     7.19438982       16.58143401        0.04644421        0.71615914        3.80000000        3.66420398
     7.33793155       16.65617649        0.04798775        0.71555098        3.80000000        3.65698326
     7.47830655       16.73091897        0.04951865        0.71495133        3.80000000        3.64980333
     7.61579092       16.80566144        0.05103856        0.71435935        3.80000000        3.64266331
     7.75062451       16.88040392        0.05254890        0.71377429        3.80000000        3.63556232
     7.88301705       16.95514640        0.05405093        0.71319553        3.80000000        3.62849953
     8.01315314       17.02988887        0.05554574        0.71262248        3.80000000        3.62147412
     8.14119612       17.10463135        0.05703431        0.71205465        3.80000000        3.61448529
     8.26729130       17.17937383        0.05851750        0.71149158        3.80000000        3.60753228
     8.39156858       17.25411630        0.05999608        0.71093288        3.80000000        3.60061434
     8.51414456       17.32885878        0.06147072        0.71037816        3.80000000        3.59373073
     8.63512436       17.40360126        0.06294206        0.70982711        3.80000000        3.58688074
     8.75460306       17.47834373        0.06441063        0.70927943        3.80000000        3.58006369
     8.87266705       17.55308621        0.06587696        0.70873484        3.80000000        3.57327890
     8.98939497       17.62782869        0.06734148        0.70819310        3.80000000        3.56652573
     9.10485871       17.70257116        0.06880462        0.70765397        3.80000000        3.55980352
     9.21912413       17.77731364        0.07026675        0.70711725        3.80000000        3.55311168
     9.33225176       17.85205612        0.07172821        0.70658275        3.80000000        3.54644958
     9.44429736       17.92679859        0.07318934        0.70605028        3.80000000        3.53981666
     9.55531239       18.00154107        0.07465040        0.70551968        3.80000000        3.53321234
     9.66534450       18.07628355        0.07611167        0.70499079        3.80000000        3.52663607
     9.77443789       18.15102602        0.07757340        0.70446349        3.80000000        3.52008730
     9.88263360       18.22576850        0.07903580        0.70393762        3.80000000        3.51356551
     9.98996988       18.30051098        0.08049910        0.70341307        3.80000000        3.50707019
    10.09648237       18.37525345        0.08196348        0.70288971        3.80000000        3.50060084
    10.20220442       18.44999593        0.08342912        0.70236745        3.80000000        3.49415697
    10.30716721       18.52473841        0.08489619        0.70184618        3.80000000        3.48773812
    10.41139997       18.59948088        0.08636484        0.70132581        3.80000000        3.48134382
    10.51493016       18.67422336        0.08783522        0.70080623        3.80000000        3.47497363
    10.61778359       18.74896584        0.08930745        0.70028737        3.80000000        3.46862711
    10.71998455       18.82370831        0.09078168        0.69976915        3.80000000        3.46230383
    10.82155595       18.89845079        0.09225800        0.69925149        3.80000000        3.45600338
    10.92251942       18.97319327        0.09373653        0.69873432        3.80000000        3.44972535
    11.02289537       19.04793574        0.09521738        0.69821757        3.80000000        3.44346935
    11.12270316       19.12267822        0.09670062        0.69770118        3.80000000        3.43723501
    11.22196111       19.19742070        0.09818637        0.69718508        3.80000000        3.43102194
    11.32068656       19.27216317        0.09967469        0.69666921        3.80000000        3.42482978
    11.41889600       19.34690565        0.10116566        0.69615352        3.80000000        3.41865818
    11.51660510       19.42164813        0.10265937        0.69563796        3.80000000        3.41250679
    11.61382876       19.49639060        0.10415587        0.69512248        3.80000000        3.40637528
    11.71058115       19.57113308        0.10565523        0.69460702        3.80000000        3.40026331
    11.80687576       19.64587556        0.10715751        0.69409154        3.80000000        3.39417056
    11.90272553       19.72061803        0.10866277        0.69357600        3.80000000        3.38809673
    11.99814271       19.79536051        0.11017107        0.69306036        3.80000000        3.38204150
    12.09313906       19.87010299        0.11168244        0.69254457        3.80000000        3.37600459
    12.18772581       19.94484546        0.11319694        0.69202859        3.80000000        3.36998570
    12.28191370       20.01958794        0.11471461        0.69151240        3.80000000        3.36398455
    12.37571302       20.09433042        0.11623549        0.69099594        3.80000000        3.35800086
    12.46913360       20.16907289        0.11775962        0.69047919        3.80000000        3.35203437
    12.56218491       20.24381537        0.11928705        0.68996212        3.80000000        3.34608481
    12.65487599       20.31855785        0.12081779        0.68944469        3.80000000        3.34015193
    12.74721555       20.39330032        0.12235189        0.68892687        3.80000000        3.33423547
    12.83921194       20.46804280        0.12388938        0.68840864        3.80000000        3.32833521
    12.93087318       20.54278528        0.12543028        0.68788996        3.80000000        3.32245089
    13.02220700       20.61752775        0.12697461        0.68737080        3.80000000        3.31658229
    13.11322083       20.69227023        0.12852242        0.68685115        3.80000000        3.31072917
    13.20392181       20.76701271        0.13007371        0.68633097        3.80000000        3.30489133
    13.29431686       20.84175518        0.13162851        0.68581024        3.80000000        3.29906855
    13.38441257       20.91649766        0.13318684        0.68528894        3.80000000        3.29326061
    13.47421538       20.99124014        0.13474872        0.68476703        3.80000000        3.28746731
    13.56373147       21.06598261        0.13631417        0.68424451        3.80000000        3.28168845
    13.65296677       21.14072509        0.13788320        0.68372135        3.80000000        3.27592384
    13.74192707       21.21546757        0.13945584        0.68319753        3.80000000        3.27017328
    13.83061791       21.29021004        0.14103209        0.68267302        3.80000000        3.26443659
    13.91904466       21.36495252        0.14261196        0.68214781        3.80000000        3.25871359
    14.00721255       21.43969500        0.14419548        0.68162188        3.80000000        3.25300410
    14.09512657       21.51443748        0.14578264        0.68109521        3.80000000        3.24730796
    14.18279161       21.58917995        0.14737347        0.68056779        3.80000000        3.24162498
    14.27021238       21.66392243        0.14896798        0.68003958        3.80000000        3.23595500
    14.35739342       21.73866491        0.15056616        0.67951058        3.80000000        3.23029787
    14.44433917       21.81340738        0.15216803        0.67898078        3.80000000        3.22465343
    14.53105391       21.88814986        0.15377360        0.67845014        3.80000000        3.21902152
    14.61754181       21.96289234        0.15538287        0.67791867        3.80000000        3.21340199
    14.70380686       22.03763481        0.15699585        0.67738634        3.80000000        3.20779470
    14.78985300       22.11237729        0.15861255        0.67685314        3.80000000        3.20219951
    14.87568402       22.18711977        0.16023297        0.67631905        3.80000000        3.19661627
    14.96130359       22.26186224        0.16185711        0.67578406        3.80000000        3.19104486
    15.04671529       22.33660472        0.16348498        0.67524816        3.80000000        3.18548513
    15.13192261       22.41134720        0.16511658        0.67471133        3.80000000        3.17993695
    15.21692892       22.48608967        0.16675192        0.67417355        3.80000000        3.17440021
    15.30173750       22.56083215        0.16839099        0.67363483        3.80000000        3.16887477
    15.38635155       22.63557463        0.17003379        0.67309513        3.80000000        3.16336051
    15.47077417       22.71031710        0.17168034        0.67255446        3.80000000        3.15785733
    15.55500837       22.78505958        0.17333062        0.67201280        3.80000000        3.15236509
    15.63905712       22.85980206        0.17498465        0.67147014        3.80000000        3.14688369
    15.72292326       22.93454453        0.17664241        0.67092646        3.80000000        3.14141302
    15.80660958       23.00928701        0.17830391        0.67038176        3.80000000        3.13595297
    15.89011880       23.08402949        0.17996915        0.66983602        3.80000000        3.13050344
    15.97345356       23.15877196        0.18163813        0.66928923        3.80000000        3.12506431
    16.05661644       23.23351444        0.18331084        0.66874138        3.80000000        3.11963550
    16.13960995       23.30825692        0.18498729        0.66819247        3.80000000        3.11421691
    16.22243655       23.38299939        0.18666746        0.66764248        3.80000000        3.10880843
    16.30509860       23.45774187        0.18835137        0.66709140        3.80000000        3.10340997
    16.38759845       23.53248435        0.19003900        0.66653923        3.80000000        3.09802145
    16.46993838       23.60722682        0.19173035        0.66598594        3.80000000        3.09264277
    16.55212058       23.68196930        0.19342542        0.66543154        3.80000000        3.08727384
    16.63414724       23.75671178        0.19512421        0.66487601        3.80000000        3.08191459
    16.71602046       23.83145425        0.19682671        0.66431935        3.80000000        3.07656492
    16.79774230       23.90619673        0.19853292        0.66376154        3.80000000        3.07122475
    16.87931478       23.98093921        0.20024282        0.66320258        3.80000000        3.06589401
    16.96073986       24.05568168        0.20195643        0.66264246        3.80000000        3.06057262
    17.04201948       24.13042416        0.20367373        0.66208117        3.80000000        3.05526049
    17.12315549       24.20516664        0.20539472        0.66151870        3.80000000        3.04995757
    17.20414975       24.27990911        0.20711939        0.66095504        3.80000000        3.04466376
    17.28500403       24.35465159        0.20884773        0.66039019        3.80000000        3.03937901
    17.36572011       24.42939407        0.21057975        0.65982413        3.80000000        3.03410323
    17.44629968       24.50413654        0.21231543        0.65925687        3.80000000        3.02883637
    17.52674443       24.57887902        0.21405478        0.65868839        3.80000000        3.02357836
    17.60705601       24.65362150        0.21579777        0.65811868        3.80000000        3.01832913
    17.68723600       24.72836397        0.21754441        0.65754773        3.80000000        3.01308862
    17.76728599       24.80310645        0.21929469        0.65697555        3.80000000        3.00785676
    17.84720751       24.87784893        0.22104860        0.65640211        3.80000000        3.00263350
    17.92700206       24.95259140        0.22280614        0.65582742        3.80000000        2.99741877
    18.00667111       25.02733388        0.22456730        0.65525147        3.80000000        2.99221252
    18.08621611       25.10207636        0.22633207        0.65467425        3.80000000        2.98701468
    18.16563847       25.17681883        0.22810044        0.65409575        3.80000000        2.98182521
    18.24493956       25.25156131        0.22987240        0.65351597        3.80000000        2.97664405
    18.32412075       25.32630379        0.23164796        0.65293490        3.80000000        2.97147115
    18.40318335       25.40104626        0.23342709        0.65235253        3.80000000        2.96630645
    18.48212868       25.47578874        0.23520980        0.65176886        3.80000000        2.96114990
    18.56095799       25.55053122        0.23699607        0.65118387        3.80000000        2.95600145
    18.63967253       25.62527369        0.23878590        0.65059757        3.80000000        2.95086106
    18.71827353       25.70001617        0.24057927        0.65000995        3.80000000        2.94572867
    18.79676218       25.77475865        0.24237618        0.64942099        3.80000000        2.94060424
    18.87513968       25.84950112        0.24417663        0.64883070        3.80000000        2.93548772
    18.95340714       25.92424360        0.24598059        0.64823907        3.80000000        2.93037907
    19.03156572       25.99898608        0.24778807        0.64764609        3.80000000        2.92527824
    19.10961651       26.07372855        0.24959905        0.64705175        3.80000000        2.92018520
    19.18756060       26.14847103        0.25141352        0.64645606        3.80000000        2.91509989
    19.26539906       26.22321351        0.25323148        0.64585899        3.80000000        2.91002228
    19.34313293       26.29795598        0.25505291        0.64526056        3.80000000        2.90495233
    19.42076323       26.37269846        0.25687781        0.64466074        3.80000000        2.89988999
    19.49829097       26.44744094        0.25870617        0.64405954        3.80000000        2.89483524
    19.57571714       26.52218341        0.26053798        0.64345695        3.80000000        2.88978802
    19.65304270       26.59692589        0.26237322        0.64285296        3.80000000        2.88474831
    19.73026860       26.67166837        0.26421189        0.64224757        3.80000000        2.87971607
    19.80739577       26.74641084        0.26605397        0.64164078        3.80000000        2.87469125
    19.88442515       26.82115332        0.26789947        0.64103257        3.80000000        2.86967384
    19.96135760       26.89589580        0.26974836        0.64042294        3.80000000        2.86466379
    20.03819403       26.97063827        0.27160064        0.63981188        3.80000000        2.85966106
    20.11493529       27.04538075        0.27345630        0.63919940        3.80000000        2.85466564
    20.19158223       27.12012323        0.27531533        0.63858548        3.80000000        2.84967748
    20.26813569       27.19486570        0.27717771        0.63797012        3.80000000        2.84469655
    20.34459649       27.26960818        0.27904344        0.63735331        3.80000000        2.83972282
    20.42096545       27.34435066        0.28091250        0.63673505        3.80000000        2.83475627
    20.49724333       27.41909314        0.28278489        0.63611533        3.80000000        2.82979686
    20.57343092       27.49383561        0.28466060        0.63549414        3.80000000        2.82484456
    20.64952899       27.56857809        0.28653961        0.63487149        3.80000000        2.81989935
    20.72553828       27.64332057        0.28842191        0.63424737        3.80000000        2.81496120
    20.80145954       27.71806304        0.29030749        0.63362176        3.80000000        2.81003007
    20.87729347       27.79280552        0.29219635        0.63299467        3.80000000        2.80510595
    20.95304080       27.86754800        0.29408846        0.63236609        3.80000000        2.80018880
    21.02870222       27.94229047        0.29598383        0.63173602        3.80000000        2.79527861
    21.10427842       28.01703295        0.29788243        0.63110444        3.80000000        2.79037534
    21.17977007       28.09177543        0.29978426        0.63047136        3.80000000        2.78547897
    21.25517784       28.16651790        0.30168931        0.62983677        3.80000000        2.78058947
    21.33050238       28.24126038        0.30359756        0.62920066        3.80000000        2.77570683
    21.40574432       28.31600286        0.30550901        0.62856303        3.80000000        2.77083102
    21.48090430       28.39074533        0.30742363        0.62792387        3.80000000        2.76596202
    21.55598294       28.46548781        0.30934143        0.62728319        3.80000000        2.76109980
    21.63098084       28.54023029        0.31126238        0.62664096        3.80000000        2.75624434
    21.70589860       28.61497276        0.31318648        0.62599719        3.80000000        2.75139561
    21.78073681       28.68971524        0.31511372        0.62535187        3.80000000        2.74655361
