#  Theta paroi en deg Angle Choc en deg       Kp           Inverse Mach       Mach amont       Mach aval
     0.00000000       58.72670220        0.00000000        0.14529915        1.17000000
     2.07960195       58.72764040        0.01055685        0.13953175        1.17000000        1.16998195
     2.31218651       58.72895311        0.01271966        0.13834498        1.17000000        1.16995671
     2.61922814       58.73138933        0.01582320        0.13663891        1.17000000        1.16990985
     2.98975481       58.73569810        0.01992841        0.13437650        1.17000000        1.16982699
     3.39538938       58.74262842        0.02485313        0.13165382        1.17000000        1.16969374
     3.81599957       58.75292930        0.03041335        0.12856832        1.17000000        1.16949575
     4.24078378       58.76734977        0.03647791        0.12518889        1.17000000        1.16921868
     4.66452554       58.78663883        0.04296047        0.12156007        1.17000000        1.16884828
     5.08489474       58.81154550        0.04980462        0.11771007        1.17000000        1.16837037
     5.50099922       58.84281880        0.05697315        0.11365659        1.17000000        1.16777085
     5.84242962       58.87409209        0.06314117        0.11015136        1.17000000        1.16717196
     6.13494710       58.90536539        0.06862695        0.10702002        1.17000000        1.16657370
     6.39260456       58.93663869        0.07361095        0.10416369        1.17000000        1.16597607
     6.62398724       58.96791199        0.07820682        0.10152004        1.17000000        1.16537906
     6.83475846       58.99918529        0.08249148        0.09904688        1.17000000        1.16478268
     7.02886806       59.03045858        0.08651974        0.09671412        1.17000000        1.16418692
     7.20919016       59.06173188        0.09033228        0.09449946        1.17000000        1.16359179
     7.37788699       59.09300518        0.09396019        0.09238580        1.17000000        1.16299728
     7.53662980       59.12427848        0.09742790        0.09035975        1.17000000        1.16240339
     7.68673930       59.15555177        0.10075497        0.08841056        1.17000000        1.16181013
     7.82927903       59.18682507        0.10395735        0.08652947        1.17000000        1.16121749
     7.96511907       59.21809837        0.10704823        0.08470923        1.17000000        1.16062547
     8.09498122       59.24937167        0.11003870        0.08294375        1.17000000        1.16003407
     8.21947133       59.28064497        0.11293813        0.08122787        1.17000000        1.15944329
     8.33910344       59.31191826        0.11575456        0.07955719        1.17000000        1.15885314
     8.45431772       59.34319156        0.11849495        0.07792787        1.17000000        1.15826360
     8.56549423       59.37446486        0.12116532        0.07633661        1.17000000        1.15767468
     8.67296365       59.40573816        0.12377098        0.07478048        1.17000000        1.15708638
     8.77701553       59.43701145        0.12631661        0.07325692        1.17000000        1.15649869
     8.87790513       59.46828475        0.12880636        0.07176364        1.17000000        1.15591162
     8.97585857       59.49955805        0.13124392        0.07029862        1.17000000        1.15532517
     9.07107730       59.53083135        0.13363262        0.06886002        1.17000000        1.15473934
     9.16374158       59.56210465        0.13597544        0.06744620        1.17000000        1.15415412
     9.25401344       59.59337794        0.13827508        0.06605568        1.17000000        1.15356952
     9.34203909       59.62465124        0.14053400        0.06468711        1.17000000        1.15298553
     9.42795094       59.65592454        0.14275442        0.06333927        1.17000000        1.15240216
     9.51186938       59.68719784        0.14493839        0.06201103        1.17000000        1.15181939
     9.59390412       59.71847114        0.14708776        0.06070137        1.17000000        1.15123725
     9.67415555       59.74974443        0.14920426        0.05940934        1.17000000        1.15065571
     9.75271572       59.78101773        0.15128947        0.05813407        1.17000000        1.15007479
     9.82966929       59.81229103        0.15334485        0.05687477        1.17000000        1.14949447
     9.90509427       59.84356433        0.15537174        0.05563068        1.17000000        1.14891477
     9.97906278       59.87483762        0.15737141        0.05440112        1.17000000        1.14833568
    10.05164161       59.90611092        0.15934502        0.05318545        1.17000000        1.14775720
    10.12289272       59.93738422        0.16129366        0.05198307        1.17000000        1.14717933
    10.19287373       59.96865752        0.16321833        0.05079343        1.17000000        1.14660207
    10.26163833       59.99993082        0.16512000        0.04961599        1.17000000        1.14602541
    10.32923661       60.03120411        0.16699954        0.04845028        1.17000000        1.14544937
    10.39571543       60.06247741        0.16885778        0.04729584        1.17000000        1.14487393
    10.46111863       60.09375071        0.17069552        0.04615223        1.17000000        1.14429910
    10.52548734       60.12502401        0.17251349        0.04501905        1.17000000        1.14372488
    10.58886020       60.15629730        0.17431237        0.04389593        1.17000000        1.14315126
    10.65127353       60.18757060        0.17609283        0.04278249        1.17000000        1.14257824
    10.71276153       60.21884390        0.17785548        0.04167841        1.17000000        1.14200584
    10.77335650       60.25011720        0.17960091        0.04058337        1.17000000        1.14143403
    10.83308888       60.28139050        0.18132967        0.03949705        1.17000000        1.14086284
    10.89198747       60.31266379        0.18304228        0.03841916        1.17000000        1.14029224
    10.95007950       60.34393709        0.18473924        0.03734945        1.17000000        1.13972225
    11.00739080       60.37521039        0.18642103        0.03628764        1.17000000        1.13915286
    11.06394585       60.40648369        0.18808809        0.03523350        1.17000000        1.13858408
    11.11976787       60.43775698        0.18974084        0.03418678        1.17000000        1.13801589
    11.17487896       60.46903028        0.19137971        0.03314726        1.17000000        1.13744831
    11.22930011       60.50030358        0.19300507        0.03211474        1.17000000        1.13688133
    11.28305133       60.53157688        0.19461729        0.03108900        1.17000000        1.13631495
    11.33615164       60.56285018        0.19621674        0.03006985        1.17000000        1.13574917
    11.38861922       60.59412347        0.19780374        0.02905711        1.17000000        1.13518399
    11.44047138       60.62539677        0.19937862        0.02805060        1.17000000        1.13461941
    11.49172471       60.65667007        0.20094169        0.02705015        1.17000000        1.13405543
    11.54239501       60.68794337        0.20249325        0.02605560        1.17000000        1.13349204
    11.59249741       60.71921666        0.20403357        0.02506679        1.17000000        1.13292926
    11.64204641       60.75048996        0.20556294        0.02408358        1.17000000        1.13236707
    11.69105587       60.78176326        0.20708161        0.02310582        1.17000000        1.13180548
    11.73953910       60.81303656        0.20858983        0.02213337        1.17000000        1.13124449
    11.78750885       60.84430986        0.21008785        0.02116610        1.17000000        1.13068409
    11.83497736       60.87558315        0.21157589        0.02020388        1.17000000        1.13012429
    11.88195637       60.90685645        0.21305419        0.01924660        1.17000000        1.12956508
    11.92845719       60.93812975        0.21452294        0.01829414        1.17000000        1.12900648
    11.97449066       60.96940305        0.21598237        0.01734637        1.17000000        1.12844846
    12.02006725       61.00067634        0.21743266        0.01640320        1.17000000        1.12789104
    12.06519697       61.03194964        0.21887402        0.01546452        1.17000000        1.12733421
    12.10988953       61.06322294        0.22030662        0.01453022        1.17000000        1.12677798
    12.15415423       61.09449624        0.22173064        0.01360021        1.17000000        1.12622234
    12.19800005       61.12576954        0.22314627        0.01267440        1.17000000        1.12566730
    12.24143568       61.15704283        0.22455365        0.01175269        1.17000000        1.12511284
    12.28446946       61.18831613        0.22595296        0.01083500        1.17000000        1.12455898
    12.32710947       61.21958943        0.22734435        0.00992124        1.17000000        1.12400571
    12.36936349       61.25086273        0.22872796        0.00901134        1.17000000        1.12345303
    12.41123905       61.28213603        0.23010396        0.00810520        1.17000000        1.12290094
    12.45274344       61.31340932        0.23147246        0.00720275        1.17000000        1.12234945
    12.49388366       61.34468262        0.23283362        0.00630393        1.17000000        1.12179854
    12.53466655       61.37595592        0.23418756        0.00540865        1.17000000        1.12124822
    12.57509866       61.40722922        0.23553442        0.00451686        1.17000000        1.12069849
    12.61518639       61.43850251        0.23687430        0.00362847        1.17000000        1.12014936
    12.65493589       61.46977581        0.23820735        0.00274343        1.17000000        1.11960081
    12.69435316       61.50104911        0.23953366        0.00186166        1.17000000        1.11905285
    12.73344396       61.53232241        0.24085336        0.00098313        1.17000000        1.11850547
    12.77221394       61.56359571        0.24216655        0.00010775        1.17000000        1.11795869
    12.81066851       61.59486900        0.24347334       -0.00076453        1.17000000        1.11741249
    12.84881299       61.62614230        0.24477384       -0.00163376        1.17000000        1.11686688
    12.88665247       61.65741560        0.24606814       -0.00250000        1.17000000        1.11632186
    12.92419195       61.68868890        0.24735634       -0.00336329        1.17000000        1.11577742
    12.96143625       61.71996219        0.24863854       -0.00422370        1.17000000        1.11523357
    12.99839006       61.75123549        0.24991483       -0.00508127        1.17000000        1.11469030
    13.03505795       61.78250879        0.25118530       -0.00593605        1.17000000        1.11414762
    13.07144433       61.81378209        0.25245003       -0.00678809        1.17000000        1.11360553
    13.10755353       61.84505539        0.25370911       -0.00763744        1.17000000        1.11306401
    13.14338971       61.87632868        0.25496262       -0.00848413        1.17000000        1.11252309
    13.17895697       61.90760198        0.25621065       -0.00932821        1.17000000        1.11198275
    13.21425926       61.93887528        0.25745327       -0.01016973        1.17000000        1.11144299
    13.24930043       61.97014858        0.25869056       -0.01100872        1.17000000        1.11090381
    13.28408425       62.00142187        0.25992259       -0.01184523        1.17000000        1.11036522
    13.31861435       62.03269517        0.26114943       -0.01267930        1.17000000        1.10982721
    13.35289432       62.06396847        0.26237116       -0.01351095        1.17000000        1.10928978
    13.38692760       62.09524177        0.26358785       -0.01434024        1.17000000        1.10875294
    13.42071758       62.12651507        0.26479955       -0.01516719        1.17000000        1.10821668
    13.45426756       62.15778836        0.26600634       -0.01599184        1.17000000        1.10768099
    13.48758073       62.18906166        0.26720828       -0.01681423        1.17000000        1.10714589
    13.52066023       62.22033496        0.26840544       -0.01763439        1.17000000        1.10661137
    13.55350911       62.25160826        0.26959786       -0.01845235        1.17000000        1.10607744
    13.58613035       62.28288155        0.27078562       -0.01926814        1.17000000        1.10554408
    13.61852685       62.31415485        0.27196877       -0.02008180        1.17000000        1.10501130
    13.65070144       62.34542815        0.27314737       -0.02089335        1.17000000        1.10447910
    13.68265689       62.37670145        0.27432147       -0.02170282        1.17000000        1.10394748
    13.71439591       62.40797475        0.27549112       -0.02251025        1.17000000        1.10341644
    13.74592113       62.43924804        0.27665639       -0.02331566        1.17000000        1.10288598
    13.77723511       62.47052134        0.27781731       -0.02411908        1.17000000        1.10235610
    13.80834039       62.50179464        0.27897395       -0.02492053        1.17000000        1.10182679
    13.83923941       62.53306794        0.28012634       -0.02572005        1.17000000        1.10129807
    13.86993458       62.56434123        0.28127454       -0.02651765        1.17000000        1.10076992
    13.90042824       62.59561453        0.28241860       -0.02731337        1.17000000        1.10024235
    13.93072269       62.62688783        0.28355856       -0.02810722        1.17000000        1.09971535
    13.96082018       62.65816113        0.28469447       -0.02889924        1.17000000        1.09918894
    13.99072288       62.68943443        0.28582636       -0.02968944        1.17000000        1.09866309
    14.02043295       62.72070772        0.28695429       -0.03047784        1.17000000        1.09813783
    14.04995249       62.75198102        0.28807829       -0.03126448        1.17000000        1.09761314
    14.07928355       62.78325432        0.28919842       -0.03204937        1.17000000        1.09708903
    14.10842814       62.81452762        0.29031469       -0.03283253        1.17000000        1.09656550
    14.13738822       62.84580092        0.29142717       -0.03361398        1.17000000        1.09604253
    14.16616571       62.87707421        0.29253588       -0.03439375        1.17000000        1.09552015
    14.19476252       62.90834751        0.29364086       -0.03517185        1.17000000        1.09499834
    14.22318046       62.93962081        0.29474216       -0.03594830        1.17000000        1.09447710
    14.25142135       62.97089411        0.29583980       -0.03672313        1.17000000        1.09395644
    14.27948696       63.00216740        0.29693383       -0.03749635        1.17000000        1.09343635
    14.30737901       63.03344070        0.29802427       -0.03826798        1.17000000        1.09291684
    14.33509923       63.06471400        0.29911116       -0.03903804        1.17000000        1.09239790
    14.36264924       63.09598730        0.30019454       -0.03980654        1.17000000        1.09187953
    14.39003069       63.12726060        0.30127444       -0.04057350        1.17000000        1.09136174
    14.41724518       63.15853389        0.30235089       -0.04133894        1.17000000        1.09084451
    14.44429427       63.18980719        0.30342392       -0.04210288        1.17000000        1.09032787
    14.47117949       63.22108049        0.30449356       -0.04286533        1.17000000        1.08981179
    14.49790235       63.25235379        0.30555985       -0.04362631        1.17000000        1.08929629
    14.52446431       63.28362708        0.30662281       -0.04438583        1.17000000        1.08878136
    14.55086684       63.31490038        0.30768247       -0.04514391        1.17000000        1.08826700
    14.57711134       63.34617368        0.30873887       -0.04590056        1.17000000        1.08775321
    14.60319922       63.37744698        0.30979203       -0.04665580        1.17000000        1.08723999
    14.62913182       63.40872028        0.31084197       -0.04740964        1.17000000        1.08672734
    14.65491049       63.43999357        0.31188873       -0.04816210        1.17000000        1.08621527
    14.68053655       63.47126687        0.31293232       -0.04891318        1.17000000        1.08570376
    14.70601128       63.50254017        0.31397279       -0.04966291        1.17000000        1.08519283
    14.73133595       63.53381347        0.31501015       -0.05041129        1.17000000        1.08468247
    14.75651180       63.56508676        0.31604442       -0.05115835        1.17000000        1.08417267
    14.78154005       63.59636006        0.31707564       -0.05190408        1.17000000        1.08366345
    14.80642190       63.62763336        0.31810383       -0.05264851        1.17000000        1.08315479
    14.83115852       63.65890666        0.31912900       -0.05339164        1.17000000        1.08264671
    14.85575106       63.69017996        0.32015120       -0.05413349        1.17000000        1.08213919
    14.88020067       63.72145325        0.32117042       -0.05487407        1.17000000        1.08163225
    14.90450845       63.75272655        0.32218671       -0.05561339        1.17000000        1.08112587
    14.92867549       63.78399985        0.32320008       -0.05635146        1.17000000        1.08062006
    14.95270288       63.81527315        0.32421056       -0.05708829        1.17000000        1.08011482
    14.97659165       63.84654644        0.32521816       -0.05782390        1.17000000        1.07961015
    15.00034287       63.87781974        0.32622290       -0.05855829        1.17000000        1.07910604
    15.02395753       63.90909304        0.32722481       -0.05929147        1.17000000        1.07860251
    15.04743664       63.94036634        0.32822391       -0.06002346        1.17000000        1.07809954
    15.07078119       63.97163964        0.32922022       -0.06075426        1.17000000        1.07759714
    15.09399214       64.00291293        0.33021376       -0.06148389        1.17000000        1.07709530
    15.11707045       64.03418623        0.33120454       -0.06221234        1.17000000        1.07659403
    15.14001705       64.06545953        0.33219258       -0.06293965        1.17000000        1.07609333
    15.16283284       64.09673283        0.33317791       -0.06366580        1.17000000        1.07559320
    15.18551876       64.12800612        0.33416054       -0.06439081        1.17000000        1.07509364
    15.20807566       64.15927942        0.33514050       -0.06511469        1.17000000        1.07459463
    15.23050443       64.19055272        0.33611779       -0.06583746        1.17000000        1.07409620
    15.25280594       64.22182602        0.33709243       -0.06655910        1.17000000        1.07359833
    15.27498103       64.25309932        0.33806445       -0.06727965        1.17000000        1.07310103
    15.29703052       64.28437261        0.33903386       -0.06799909        1.17000000        1.07260430
    15.31895523       64.31564591        0.34000067       -0.06871745        1.17000000        1.07210812
    15.34075597       64.34691921        0.34096491       -0.06943472        1.17000000        1.07161252
