#  Theta paroi en deg Angle Choc en deg       Kp           Inverse Mach       Mach amont       Mach aval
     0.00000000       38.11806431        0.00000000        0.38271605        1.62000000
     2.15331417       38.11962076        0.00920196        0.37838656        1.62000000        1.61994569
     2.55384654       38.12179852        0.01230679        0.37692626        1.62000000        1.61986969
     3.00298513       38.12584019        0.01618853        0.37510085        1.62000000        1.61972868
     3.49694899       38.13298837        0.02091101        0.37288042        1.62000000        1.61947933
     4.01125069       38.14448566        0.02629821        0.37034776        1.62000000        1.61907841
     4.53078241       38.16157468        0.03219697        0.36757481        1.62000000        1.61848281
     5.04874441       38.18549801        0.03850957        0.36460731        1.62000000        1.61764964
     5.56279434       38.21749828        0.04517985        0.36147138        1.62000000        1.61653631
     6.07272593       38.25881808        0.05217864        0.35818038        1.62000000        1.61510065
     6.57931523       38.31070001        0.05949411        0.35473939        1.62000000        1.61330106
     6.99742210       38.36258195        0.06579553        0.35177420        1.62000000        1.61150483
     7.35798479       38.41446388        0.07141636        0.34912814        1.62000000        1.60971195
     7.67774827       38.46634582        0.07654301        0.34671364        1.62000000        1.60792239
     7.96688502       38.51822775        0.08129160        0.34447615        1.62000000        1.60613614
     8.23207634       38.57010969        0.08574002        0.34237908        1.62000000        1.60435318
     8.47796582       38.62199163        0.08994335        0.34039657        1.62000000        1.60257349
     8.70792238       38.67387356        0.09394217        0.33850955        1.62000000        1.60079704
     8.92447417       38.72575550        0.09776733        0.33670355        1.62000000        1.59902382
     9.12957089       38.77763743        0.10144291        0.33496726        1.62000000        1.59725381
     9.32475040       38.82951937        0.10498812        0.33329165        1.62000000        1.59548699
     9.51124884       38.88140130        0.10841851        0.33166941        1.62000000        1.59372335
     9.69007595       38.93328324        0.11174694        0.33009452        1.62000000        1.59196286
     9.86206810       38.98516518        0.11498412        0.32856193        1.62000000        1.59020551
    10.02792643       39.03704711        0.11813909        0.32706740        1.62000000        1.58845127
    10.18824504       39.08892905        0.12121958        0.32560730        1.62000000        1.58670014
    10.34353207       39.14081098        0.12423223        0.32417851        1.62000000        1.58495209
    10.49422579       39.19269292        0.12718281        0.32277831        1.62000000        1.58320710
    10.64070711       39.24457485        0.13007634        0.32140434        1.62000000        1.58146516
    10.78330931       39.29645679        0.13291727        0.32005452        1.62000000        1.57972625
    10.92232582       39.34833873        0.13570951        0.31872699        1.62000000        1.57799035
    11.05801643       39.40022066        0.13845655        0.31742012        1.62000000        1.57625745
    11.19061235       39.45210260        0.14116149        0.31613245        1.62000000        1.57452753
    11.32032031       39.50398453        0.14382714        0.31486265        1.62000000        1.57280057
    11.44732598       39.55586647        0.14645601        0.31360954        1.62000000        1.57107656
    11.57179676       39.60774840        0.14905038        0.31237204        1.62000000        1.56935547
    11.69388421       39.65963034        0.15161233        0.31114918        1.62000000        1.56763730
    11.81372593       39.71151228        0.15414373        0.30994006        1.62000000        1.56592203
    11.93144731       39.76339421        0.15664632        0.30874387        1.62000000        1.56420963
    12.04716297       39.81527615        0.15912166        0.30755987        1.62000000        1.56250010
    12.16097796       39.86715808        0.16157122        0.30638737        1.62000000        1.56079342
    12.27298880       39.91904002        0.16399633        0.30522573        1.62000000        1.55908957
    12.38328444       39.97092195        0.16639822        0.30407437        1.62000000        1.55738854
    12.49194699       40.02280389        0.16877803        0.30293275        1.62000000        1.55569032
    12.59905248       40.07468583        0.17113684        0.30180036        1.62000000        1.55399487
    12.70467140       40.12656776        0.17347560        0.30067674        1.62000000        1.55230221
    12.80886929       40.17844970        0.17579526        0.29956145        1.62000000        1.55061229
    12.91170712       40.23033163        0.17809666        0.29845408        1.62000000        1.54892512
    13.01324181       40.28221357        0.18038059        0.29735426        1.62000000        1.54724068
    13.11352654       40.33409550        0.18264781        0.29626162        1.62000000        1.54555895
    13.21261104       40.38597744        0.18489901        0.29517584        1.62000000        1.54387992
    13.31054195       40.43785938        0.18713486        0.29409659        1.62000000        1.54220357
    13.40736306       40.48974131        0.18935597        0.29302358        1.62000000        1.54052989
    13.50311551       40.54162325        0.19156292        0.29195654        1.62000000        1.53885887
    13.59783803       40.59350518        0.19375626        0.29089519        1.62000000        1.53719049
    13.69156713       40.64538712        0.19593650        0.28983930        1.62000000        1.53552473
    13.78433727       40.69726905        0.19810414        0.28878862        1.62000000        1.53386159
    13.87618099       40.74915099        0.20025963        0.28774294        1.62000000        1.53220105
    13.96712908       40.80103293        0.20240341        0.28670204        1.62000000        1.53054309
    14.05721068       40.85291486        0.20453589        0.28566572        1.62000000        1.52888771
    14.14645342       40.90479680        0.20665747        0.28463379        1.62000000        1.52723489
    14.23488351       40.95667873        0.20876852        0.28360607        1.62000000        1.52558461
    14.32252586       41.00856067        0.21086939        0.28258239        1.62000000        1.52393687
    14.40940413       41.06044260        0.21296042        0.28156259        1.62000000        1.52229164
    14.49554085       41.11232454        0.21504193        0.28054650        1.62000000        1.52064893
    14.58095746       41.16420647        0.21711422        0.27953398        1.62000000        1.51900871
    14.66567439       41.21608841        0.21917758        0.27852488        1.62000000        1.51737097
    14.74971114       41.26797035        0.22123230        0.27751908        1.62000000        1.51573569
    14.83308634       41.31985228        0.22327863        0.27651643        1.62000000        1.51410288
    14.91581774       41.37173422        0.22531683        0.27551682        1.62000000        1.51247251
    14.99792237       41.42361615        0.22734714        0.27452012        1.62000000        1.51084457
    15.07941647       41.47549809        0.22936979        0.27352622        1.62000000        1.50921905
    15.16031562       41.52738002        0.23138500        0.27253501        1.62000000        1.50759594
    15.24063473       41.57926196        0.23339299        0.27154638        1.62000000        1.50597522
    15.32038810       41.63114390        0.23539396        0.27056024        1.62000000        1.50435689
    15.39958945       41.68302583        0.23738809        0.26957647        1.62000000        1.50274093
    15.47825193       41.73490777        0.23937559        0.26859500        1.62000000        1.50112733
    15.55638818       41.78678970        0.24135662        0.26761573        1.62000000        1.49951608
    15.63401036       41.83867164        0.24333136        0.26663856        1.62000000        1.49790717
    15.71113015       41.89055357        0.24529998        0.26566343        1.62000000        1.49630058
    15.78775876       41.94243551        0.24726263        0.26469024        1.62000000        1.49469631
    15.86390702       41.99431745        0.24921947        0.26371892        1.62000000        1.49309433
    15.93958533       42.04619938        0.25117064        0.26274939        1.62000000        1.49149466
    16.01480372       42.09808132        0.25311629        0.26178159        1.62000000        1.48989726
    16.08957187       42.14996325        0.25505655        0.26081543        1.62000000        1.48830213
    16.16389907       42.20184519        0.25699155        0.25985086        1.62000000        1.48670926
    16.23779435       42.25372712        0.25892142        0.25888780        1.62000000        1.48511864
    16.31126636       42.30560906        0.26084629        0.25792619        1.62000000        1.48353026
    16.38432349       42.35749100        0.26276626        0.25696598        1.62000000        1.48194411
    16.45697385       42.40937293        0.26468146        0.25600709        1.62000000        1.48036017
    16.52922523       42.46125487        0.26659199        0.25504948        1.62000000        1.47877844
    16.60108521       42.51313680        0.26849795        0.25409308        1.62000000        1.47719891
    16.67256112       42.56501874        0.27039946        0.25313785        1.62000000        1.47562156
    16.74366001       42.61690067        0.27229661        0.25218372        1.62000000        1.47404638
    16.81438875       42.66878261        0.27418949        0.25123066        1.62000000        1.47247337
    16.88475394       42.72066455        0.27607820        0.25027860        1.62000000        1.47090252
    16.95476204       42.77254648        0.27796282        0.24932750        1.62000000        1.46933381
    17.02441925       42.82442842        0.27984345        0.24837732        1.62000000        1.46776724
    17.09373161       42.87631035        0.28172016        0.24742800        1.62000000        1.46620280
    17.16270496       42.92819229        0.28359304        0.24647951        1.62000000        1.46464047
    17.23134497       42.98007422        0.28546216        0.24553179        1.62000000        1.46308024
    17.29965715       43.03195616        0.28732760        0.24458482        1.62000000        1.46152212
    17.36764682       43.08383810        0.28918944        0.24363854        1.62000000        1.45996608
    17.43531919       43.13572003        0.29104774        0.24269291        1.62000000        1.45841212
    17.50267926       43.18760197        0.29290258        0.24174791        1.62000000        1.45686023
    17.56973195       43.23948390        0.29475402        0.24080349        1.62000000        1.45531040
    17.63648198       43.29136584        0.29660212        0.23985960        1.62000000        1.45376262
    17.70293398       43.34324777        0.29844695        0.23891623        1.62000000        1.45221688
    17.76909242       43.39512971        0.30028857        0.23797333        1.62000000        1.45067318
    17.83496167       43.44701165        0.30212704        0.23703087        1.62000000        1.44913150
    17.90054599       43.49889358        0.30396242        0.23608881        1.62000000        1.44759183
    17.96584947       43.55077552        0.30579475        0.23514712        1.62000000        1.44605417
    18.03087615       43.60265745        0.30762410        0.23420578        1.62000000        1.44451851
    18.09562992       43.65453939        0.30945052        0.23326474        1.62000000        1.44298483
    18.16011461       43.70642132        0.31127406        0.23232398        1.62000000        1.44145314
    18.22433389       43.75830326        0.31309476        0.23138348        1.62000000        1.43992342
    18.28829140       43.81018520        0.31491268        0.23044319        1.62000000        1.43839566
    18.35199063       43.86206713        0.31672786        0.22950309        1.62000000        1.43686986
    18.41543502       43.91394907        0.31854035        0.22856316        1.62000000        1.43534600
    18.47862789       43.96583100        0.32035020        0.22762336        1.62000000        1.43382408
    18.54157250       44.01771294        0.32215743        0.22668367        1.62000000        1.43230410
    18.60427204       44.06959487        0.32396211        0.22574407        1.62000000        1.43078603
    18.66672957       44.12147681        0.32576426        0.22480453        1.62000000        1.42926988
    18.72894813       44.17335875        0.32756393        0.22386502        1.62000000        1.42775564
    18.79093066       44.22524068        0.32936115        0.22292552        1.62000000        1.42624329
    18.85268002       44.27712262        0.33115596        0.22198600        1.62000000        1.42473284
    18.91419901       44.32900455        0.33294840        0.22104645        1.62000000        1.42322426
    18.97549039       44.38088649        0.33473851        0.22010683        1.62000000        1.42171757
    19.03655680       44.43276842        0.33652631        0.21916713        1.62000000        1.42021274
    19.09740087       44.48465036        0.33831184        0.21822732        1.62000000        1.41870977
    19.15802513       44.53653230        0.34009514        0.21728739        1.62000000        1.41720865
    19.21843206       44.58841423        0.34187623        0.21634730        1.62000000        1.41570938
    19.27862412       44.64029617        0.34365515        0.21540705        1.62000000        1.41421195
    19.33860366       44.69217810        0.34543192        0.21446660        1.62000000        1.41271634
    19.39837300       44.74406004        0.34720657        0.21352595        1.62000000        1.41122257
    19.45793440       44.79594197        0.34897914        0.21258506        1.62000000        1.40973060
    19.51729010       44.84782391        0.35074965        0.21164392        1.62000000        1.40824045
    19.57644225       44.89970584        0.35251813        0.21070252        1.62000000        1.40675209
    19.63539296       44.95158778        0.35428460        0.20976082        1.62000000        1.40526554
    19.69414432       45.00346972        0.35604910        0.20881882        1.62000000        1.40378076
    19.75269834       45.05535165        0.35781163        0.20787649        1.62000000        1.40229778
    19.81105701       45.10723359        0.35957223        0.20693382        1.62000000        1.40081656
    19.86922227       45.15911552        0.36133093        0.20599079        1.62000000        1.39933711
    19.92719601       45.21099746        0.36308774        0.20504738        1.62000000        1.39785942
    19.98498008       45.26287939        0.36484269        0.20410358        1.62000000        1.39638349
    20.04257631       45.31476133        0.36659579        0.20315936        1.62000000        1.39490930
    20.09998648       45.36664327        0.36834708        0.20221472        1.62000000        1.39343686
    20.15721231       45.41852520        0.37009656        0.20126963        1.62000000        1.39196615
    20.21425552       45.47040714        0.37184427        0.20032409        1.62000000        1.39049716
    20.27111778       45.52228907        0.37359022        0.19937806        1.62000000        1.38902990
    20.32780072       45.57417101        0.37533443        0.19843155        1.62000000        1.38756435
    20.38430593       45.62605294        0.37707691        0.19748453        1.62000000        1.38610051
    20.44063499       45.67793488        0.37881769        0.19653698        1.62000000        1.38463837
    20.49678942       45.72981682        0.38055679        0.19558890        1.62000000        1.38317793
    20.55277074       45.78169875        0.38229422        0.19464027        1.62000000        1.38171918
    20.60858042       45.83358069        0.38402999        0.19369108        1.62000000        1.38026212
    20.66421990       45.88546262        0.38576413        0.19274130        1.62000000        1.37880673
    20.71969059       45.93734456        0.38749665        0.19179093        1.62000000        1.37735301
    20.77499388       45.98922649        0.38922757        0.19083995        1.62000000        1.37590096
    20.83013113       46.04110843        0.39095690        0.18988835        1.62000000        1.37445057
    20.88510368       46.09299037        0.39268465        0.18893612        1.62000000        1.37300183
    20.93991282       46.14487230        0.39441084        0.18798324        1.62000000        1.37155474
    20.99455984       46.19675424        0.39613549        0.18702970        1.62000000        1.37010930
    21.04904599       46.24863617        0.39785860        0.18607548        1.62000000        1.36866549
    21.10337250       46.30051811        0.39958020        0.18512057        1.62000000        1.36722331
    21.15754059       46.35240004        0.40130029        0.18416497        1.62000000        1.36578276
    21.21155142       46.40428198        0.40301888        0.18320866        1.62000000        1.36434383
    21.26540617       46.45616392        0.40473600        0.18225162        1.62000000        1.36290651
    21.31910597       46.50804585        0.40645164        0.18129384        1.62000000        1.36147081
    21.37265194       46.55992779        0.40816583        0.18033532        1.62000000        1.36003670
    21.42604517       46.61180972        0.40987857        0.17937604        1.62000000        1.35860420
    21.47928674       46.66369166        0.41158987        0.17841598        1.62000000        1.35717329
    21.53237770       46.71557359        0.41329975        0.17745514        1.62000000        1.35574396
    21.58531909       46.76745553        0.41500822        0.17649351        1.62000000        1.35431622
    21.63811192       46.81933747        0.41671528        0.17553107        1.62000000        1.35289006
    21.69075719       46.87121940        0.41842095        0.17456781        1.62000000        1.35146547
    21.74325586       46.92310134        0.42012523        0.17360372        1.62000000        1.35004244
    21.79560892       46.97498327        0.42182814        0.17263880        1.62000000        1.34862098
    21.84781728       47.02686521        0.42352968        0.17167302        1.62000000        1.34720108
    21.89988189       47.07874714        0.42522986        0.17070639        1.62000000        1.34578272
    21.95180365       47.13062908        0.42692869        0.16973888        1.62000000        1.34436592
    22.00358343       47.18251102        0.42862619        0.16877049        1.62000000        1.34295065
    22.05522213       47.23439295        0.43032235        0.16780121        1.62000000        1.34153693
    22.10672060       47.28627489        0.43201719        0.16683102        1.62000000        1.34012473
    22.15807967       47.33815682        0.43371071        0.16585993        1.62000000        1.33871407
    22.20930018       47.39003876        0.43540292        0.16488791        1.62000000        1.33730493
    22.26038294       47.44192069        0.43709383        0.16391495        1.62000000        1.33589730
