#  Theta paroi en deg Angle Choc en deg       Kp           Inverse Mach       Mach amont       Mach aval
     0.00000000       37.57186932        0.00000000        0.39024390        1.64000000
     2.14676375       37.57344216        0.00910175        0.38597835        1.64000000        1.63994423
     2.54830741       37.57564285        0.01218846        0.38453261        1.64000000        1.63986621
     2.99765081       37.57972707        0.01604027        0.38272903        1.64000000        1.63972142
     3.49133290       37.58695050        0.02072137        0.38053783        1.64000000        1.63946541
     4.00508243       37.59856883        0.02605806        0.37804053        1.64000000        1.63905377
     4.52394415       37.61583775        0.03189947        0.37530782        1.64000000        1.63844226
     5.04121587       37.64001294        0.03814969        0.37238451        1.64000000        1.63758685
     5.55461962       37.67235010        0.04475391        0.36929608        1.64000000        1.63644383
     6.06399528       37.71410490        0.05168404        0.36605542        1.64000000        1.63496994
     6.57015491       37.76653303        0.05892916        0.36266727        1.64000000        1.63312250
     6.98802303       37.81896116        0.06517156        0.35974760        1.64000000        1.63127860
     7.34847772       37.87138929        0.07074122        0.35714201        1.64000000        1.62943821
     7.66822941       37.92381742        0.07582256        0.35476425        1.64000000        1.62760133
     7.95742868       37.97624555        0.08053043        0.35256061        1.64000000        1.62576792
     8.22274202       38.02867368        0.08494185        0.35049506        1.64000000        1.62393796
     8.46880242       38.08110181        0.08911128        0.34854214        1.64000000        1.62211144
     8.69897095       38.13352994        0.09307884        0.34668309        1.64000000        1.62028833
     8.91576978       38.18595807        0.09687502        0.34490367        1.64000000        1.61846862
     9.12114394       38.23838620        0.10052362        0.34319273        1.64000000        1.61665227
     9.31662752       38.29081433        0.10404362        0.34154141        1.64000000        1.61483928
     9.50345363       38.34324246        0.10745040        0.33994251        1.64000000        1.61302962
     9.68262947       38.39567060        0.11075664        0.33839011        1.64000000        1.61122327
     9.85498932       38.44809873        0.11397294        0.33687925        1.64000000        1.60942021
    10.02123255       38.50052686        0.11710823        0.33540575        1.64000000        1.60762043
    10.18195170       38.55295499        0.12017013        0.33396604        1.64000000        1.60582389
    10.33765363       38.60538312        0.12316521        0.33255706        1.64000000        1.60403059
    10.48877545       38.65781125        0.12609915        0.33117613        1.64000000        1.60224051
    10.63569711       38.71023938        0.12897695        0.32982094        1.64000000        1.60045362
    10.77875096       38.76266751        0.13180296        0.32848942        1.64000000        1.59866990
    10.91822968       38.81509564        0.13458105        0.32717978        1.64000000        1.59688934
    11.05439237       38.86752377        0.13731467        0.32589039        1.64000000        1.59511193
    11.18746961       38.91995190        0.14000689        0.32461981        1.64000000        1.59333763
    11.31766758       38.97238003        0.14266046        0.32336676        1.64000000        1.59156644
    11.44517144       39.02480816        0.14527788        0.32213006        1.64000000        1.58979833
    11.57014815       39.07723629        0.14786139        0.32090865        1.64000000        1.58803329
    11.69274883       39.12966442        0.15041304        0.31970158        1.64000000        1.58627130
    11.81311072       39.18209256        0.15293469        0.31850798        1.64000000        1.58451234
    11.93135887       39.23452069        0.15542803        0.31732703        1.64000000        1.58275639
    12.04760758       39.28694882        0.15789463        0.31615802        1.64000000        1.58100344
    12.16196158       39.33937695        0.16033592        0.31500025        1.64000000        1.57925347
    12.27451715       39.39180508        0.16275321        0.31385312        1.64000000        1.57750647
    12.38536297       39.44423321        0.16514772        0.31271604        1.64000000        1.57576241
    12.49458094       39.49666134        0.16752058        0.31158849        1.64000000        1.57402128
    12.60224686       39.54908947        0.16987284        0.31046997        1.64000000        1.57228307
    12.70843103       39.60151760        0.17220546        0.30936002        1.64000000        1.57054775
    12.81319879       39.65394573        0.17451935        0.30825821        1.64000000        1.56881532
    12.91661096       39.70637386        0.17681535        0.30716414        1.64000000        1.56708574
    13.01872427       39.75880199        0.17909424        0.30607744        1.64000000        1.56535902
    13.11959176       39.81123012        0.18135678        0.30499776        1.64000000        1.56363513
    13.21926301       39.86365825        0.18360363        0.30392477        1.64000000        1.56191406
    13.31778453       39.91608639        0.18583546        0.30285816        1.64000000        1.56019579
    13.41519998       39.96851452        0.18805287        0.30179763        1.64000000        1.55848030
    13.51155038       40.02094265        0.19025643        0.30074293        1.64000000        1.55676759
    13.60687435       40.07337078        0.19244668        0.29969378        1.64000000        1.55505763
    13.70120830       40.12579891        0.19462413        0.29864994        1.64000000        1.55335041
    13.79458657       40.17822704        0.19678927        0.29761119        1.64000000        1.55164592
    13.88704162       40.23065517        0.19894254        0.29657730        1.64000000        1.54994414
    13.97860413       40.28308330        0.20108438        0.29554806        1.64000000        1.54824506
    14.06930317       40.33551143        0.20321519        0.29452329        1.64000000        1.54654866
    14.15916629       40.38793956        0.20533535        0.29350279        1.64000000        1.54485493
    14.24821962       40.44036769        0.20744525        0.29248638        1.64000000        1.54316385
    14.33648799       40.49279582        0.20954522        0.29147390        1.64000000        1.54147541
    14.42399499       40.54522395        0.21163559        0.29046518        1.64000000        1.53978959
    14.51076308       40.59765208        0.21371668        0.28946008        1.64000000        1.53810639
    14.59681363       40.65008021        0.21578879        0.28845844        1.64000000        1.53642578
    14.68216703       40.70250835        0.21785221        0.28746012        1.64000000        1.53474776
    14.76684270       40.75493648        0.21990721        0.28646499        1.64000000        1.53307231
    14.85085922       40.80736461        0.22195405        0.28547292        1.64000000        1.53139942
    14.93423430       40.85979274        0.22399297        0.28448380        1.64000000        1.52972906
    15.01698489       40.91222087        0.22602422        0.28349749        1.64000000        1.52806124
    15.09912720       40.96464900        0.22804802        0.28251389        1.64000000        1.52639594
    15.18067676       41.01707713        0.23006459        0.28153289        1.64000000        1.52473314
    15.26164842       41.06950526        0.23207414        0.28055439        1.64000000        1.52307283
    15.34205646       41.12193339        0.23407687        0.27957828        1.64000000        1.52141500
    15.42191454       41.17436152        0.23607297        0.27860448        1.64000000        1.51975964
    15.50123577       41.22678965        0.23806263        0.27763288        1.64000000        1.51810673
    15.58003277       41.27921778        0.24004601        0.27666340        1.64000000        1.51645626
    15.65831764       41.33164591        0.24202329        0.27569595        1.64000000        1.51480822
    15.73610202       41.38407404        0.24399463        0.27473045        1.64000000        1.51316260
    15.81339712       41.43650217        0.24596019        0.27376683        1.64000000        1.51151938
    15.89021370       41.48893031        0.24792011        0.27280500        1.64000000        1.50987855
    15.96656214       41.54135844        0.24987455        0.27184489        1.64000000        1.50824010
    16.04245245       41.59378657        0.25182364        0.27088642        1.64000000        1.50660402
    16.11789426       41.64621470        0.25376751        0.26992954        1.64000000        1.50497030
    16.19289685       41.69864283        0.25570630        0.26897416        1.64000000        1.50333892
    16.26746919       41.75107096        0.25764012        0.26802024        1.64000000        1.50170987
    16.34161994       41.80349909        0.25956910        0.26706770        1.64000000        1.50008315
    16.41535746       41.85592722        0.26149336        0.26611648        1.64000000        1.49845873
    16.48868979       41.90835535        0.26341300        0.26516653        1.64000000        1.49683662
    16.56162475       41.96078348        0.26532813        0.26421779        1.64000000        1.49521679
    16.63416988       42.01321161        0.26723886        0.26327020        1.64000000        1.49359924
    16.70633246       42.06563974        0.26914528        0.26232371        1.64000000        1.49198396
    16.77811955       42.11806787        0.27104750        0.26137826        1.64000000        1.49037093
    16.84953798       42.17049600        0.27294560        0.26043382        1.64000000        1.48876014
    16.92059436       42.22292413        0.27483968        0.25949032        1.64000000        1.48715159
    16.99129508       42.27535227        0.27672982        0.25854772        1.64000000        1.48554526
    17.06164635       42.32778040        0.27861612        0.25760598        1.64000000        1.48394115
    17.13165419       42.38020853        0.28049864        0.25666504        1.64000000        1.48233923
    17.20132442       42.43263666        0.28237747        0.25572488        1.64000000        1.48073951
    17.27066268       42.48506479        0.28425269        0.25478543        1.64000000        1.47914197
    17.33967448       42.53749292        0.28612437        0.25384667        1.64000000        1.47754660
    17.40836512       42.58992105        0.28799259        0.25290855        1.64000000        1.47595339
    17.47673978       42.64234918        0.28985740        0.25197103        1.64000000        1.47436233
    17.54480345       42.69477731        0.29171889        0.25103407        1.64000000        1.47277341
    17.61256104       42.74720544        0.29357711        0.25009765        1.64000000        1.47118662
    17.68001726       42.79963357        0.29543213        0.24916171        1.64000000        1.46960195
    17.74717670       42.85206170        0.29728401        0.24822623        1.64000000        1.46801940
    17.81404385       42.90448983        0.29913281        0.24729116        1.64000000        1.46643894
    17.88062305       42.95691796        0.30097858        0.24635649        1.64000000        1.46486058
    17.94691853       43.00934610        0.30282139        0.24542217        1.64000000        1.46328430
    18.01293439       43.06177423        0.30466129        0.24448817        1.64000000        1.46171010
    18.07867465       43.11420236        0.30649832        0.24355446        1.64000000        1.46013796
    18.14414319       43.16663049        0.30833255        0.24262101        1.64000000        1.45856787
    18.20934380       43.21905862        0.31016402        0.24168779        1.64000000        1.45699983
    18.27428019       43.27148675        0.31199278        0.24075477        1.64000000        1.45543383
    18.33895594       43.32391488        0.31381887        0.23982192        1.64000000        1.45386986
    18.40337456       43.37634301        0.31564235        0.23888922        1.64000000        1.45230790
    18.46753947       43.42877114        0.31746325        0.23795663        1.64000000        1.45074795
    18.53145398       43.48119927        0.31928163        0.23702413        1.64000000        1.44919001
    18.59512134       43.53362740        0.32109751        0.23609169        1.64000000        1.44763405
    18.65854472       43.58605553        0.32291095        0.23515929        1.64000000        1.44608008
    18.72172718       43.63848366        0.32472197        0.23422691        1.64000000        1.44452809
    18.78467174       43.69091179        0.32653063        0.23329451        1.64000000        1.44297806
    18.84738134       43.74333992        0.32833695        0.23236208        1.64000000        1.44142999
    18.90985884       43.79576806        0.33014098        0.23142958        1.64000000        1.43988388
    18.97210702       43.84819619        0.33194274        0.23049700        1.64000000        1.43833970
    19.03412862       43.90062432        0.33374228        0.22956432        1.64000000        1.43679746
    19.09592629       43.95305245        0.33553963        0.22863150        1.64000000        1.43525714
    19.15750263       44.00548058        0.33733481        0.22769854        1.64000000        1.43371874
    19.21886019       44.05790871        0.33912786        0.22676540        1.64000000        1.43218225
    19.28000144       44.11033684        0.34091881        0.22583208        1.64000000        1.43064765
    19.34092880       44.16276497        0.34270769        0.22489853        1.64000000        1.42911496
    19.40164464       44.21519310        0.34449454        0.22396476        1.64000000        1.42758415
    19.46215126       44.26762123        0.34627937        0.22303073        1.64000000        1.42605521
    19.52245094       44.32004936        0.34806221        0.22209642        1.64000000        1.42452815
    19.58254586       44.37247749        0.34984310        0.22116182        1.64000000        1.42300295
    19.64243821       44.42490562        0.35162206        0.22022691        1.64000000        1.42147961
    19.70213009       44.47733375        0.35339911        0.21929167        1.64000000        1.41995811
    19.76162355       44.52976188        0.35517428        0.21835608        1.64000000        1.41843845
    19.82092063       44.58219002        0.35694759        0.21742013        1.64000000        1.41692063
    19.88002329       44.63461815        0.35871907        0.21648379        1.64000000        1.41540463
    19.93893347       44.68704628        0.36048874        0.21554704        1.64000000        1.41389045
    19.99765305       44.73947441        0.36225662        0.21460988        1.64000000        1.41237808
    20.05618390       44.79190254        0.36402273        0.21367229        1.64000000        1.41086751
    20.11452782       44.84433067        0.36578710        0.21273423        1.64000000        1.40935874
    20.17268657       44.89675880        0.36754974        0.21179572        1.64000000        1.40785176
    20.23066191       44.94918693        0.36931067        0.21085671        1.64000000        1.40634657
    20.28845551       45.00161506        0.37106992        0.20991720        1.64000000        1.40484315
    20.34606905       45.05404319        0.37282750        0.20897718        1.64000000        1.40334150
    20.40350416       45.10647132        0.37458343        0.20803663        1.64000000        1.40184161
    20.46076244       45.15889945        0.37633774        0.20709553        1.64000000        1.40034348
    20.51784543       45.21132758        0.37809042        0.20615386        1.64000000        1.39884709
    20.57475467       45.26375571        0.37984152        0.20521162        1.64000000        1.39735245
    20.63149167       45.31618385        0.38159103        0.20426879        1.64000000        1.39585955
    20.68805789       45.36861198        0.38333898        0.20332535        1.64000000        1.39436837
    20.74445477       45.42104011        0.38508538        0.20238130        1.64000000        1.39287892
    20.80068371       45.47346824        0.38683025        0.20143661        1.64000000        1.39139118
    20.85674611       45.52589637        0.38857360        0.20049127        1.64000000        1.38990516
    20.91264331       45.57832450        0.39031545        0.19954527        1.64000000        1.38842084
    20.96837665       45.63075263        0.39205581        0.19859860        1.64000000        1.38693821
    21.02394742       45.68318076        0.39379469        0.19765124        1.64000000        1.38545728
    21.07935690       45.73560889        0.39553211        0.19670317        1.64000000        1.38397803
    21.13460634       45.78803702        0.39726809        0.19575440        1.64000000        1.38250047
    21.18969697       45.84046515        0.39900263        0.19480490        1.64000000        1.38102457
    21.24462999       45.89289328        0.40073574        0.19385466        1.64000000        1.37955035
    21.29940659       45.94532141        0.40246744        0.19290367        1.64000000        1.37807778
    21.35402791       45.99774954        0.40419775        0.19195191        1.64000000        1.37660688
    21.40849510       46.05017767        0.40592666        0.19099938        1.64000000        1.37513762
    21.46280925       46.10260581        0.40765420        0.19004606        1.64000000        1.37367000
    21.51697148       46.15503394        0.40938037        0.18909194        1.64000000        1.37220403
    21.57098285       46.20746207        0.41110519        0.18813702        1.64000000        1.37073968
    21.62484441       46.25989020        0.41282865        0.18718126        1.64000000        1.36927697
    21.67855719       46.31231833        0.41455079        0.18622468        1.64000000        1.36781587
    21.73212220       46.36474646        0.41627160        0.18526725        1.64000000        1.36635640
    21.78554044       46.41717459        0.41799109        0.18430896        1.64000000        1.36489853
    21.83881287       46.46960272        0.41970927        0.18334981        1.64000000        1.36344227
    21.89194046       46.52203085        0.42142615        0.18238977        1.64000000        1.36198760
    21.94492416       46.57445898        0.42314174        0.18142885        1.64000000        1.36053454
    21.99776486       46.62688711        0.42485606        0.18046703        1.64000000        1.35908306
    22.05046348       46.67931524        0.42656909        0.17950429        1.64000000        1.35763316
    22.10302091       46.73174337        0.42828087        0.17854064        1.64000000        1.35618485
    22.15543802       46.78417150        0.42999138        0.17757605        1.64000000        1.35473810
    22.20771565       46.83659963        0.43170064        0.17661052        1.64000000        1.35329293
    22.25985467       46.88902777        0.43340866        0.17564404        1.64000000        1.35184932
    22.31185588       46.94145590        0.43511545        0.17467660        1.64000000        1.35040727
    22.36372009       46.99388403        0.43682100        0.17370818        1.64000000        1.34896677
