#  Theta paroi en deg Angle Choc en deg       Kp           Inverse Mach       Mach amont       Mach aval
     0.00000000       12.83958841        0.00000000        0.77777778        4.50000000
     1.22829935       12.84190322        0.00242024        0.77643690        4.50000000        4.49966851
     1.48734074       12.84514205        0.00332405        0.77594473        4.50000000        4.49920485
     1.76361412       12.85115294        0.00440015        0.77536458        4.50000000        4.49834486
     2.06116996       12.86178393        0.00567898        0.77468319        4.50000000        4.49682544
     2.36949968       12.87888306        0.00712690        0.77392196        4.50000000        4.49438579
     2.68278084       12.90429837        0.00871936        0.77309688        4.50000000        4.49076914
     2.99936900       12.93987789        0.01044763        0.77221532        4.50000000        4.48572505
     3.31977207       12.98746967        0.01231460        0.77127861        4.50000000        4.47901207
     3.64546754       13.04892175        0.01433096        0.77028435        4.50000000        4.47040064
     3.97833668       13.12608216        0.01651305        0.76922780        4.50000000        4.45967613
     4.26105016       13.20324257        0.01846152        0.76830059        4.50000000        4.44904707
     4.51123619       13.28040298        0.02025819        0.76745853        4.50000000        4.43851065
     4.73840501       13.35756339        0.02194822        0.76667725        4.50000000        4.42806416
     4.94832059       13.43472380        0.02355940        0.76594173        4.50000000        4.41770500
     5.14476189       13.51188422        0.02511020        0.76524198        4.50000000        4.40743067
     5.33035152       13.58904463        0.02661355        0.76457101        4.50000000        4.39723875
     5.50698974       13.66620504        0.02807889        0.76392371        4.50000000        4.38712691
     5.67610107       13.74336545        0.02951334        0.76329619        4.50000000        4.37709290
     5.83878300       13.82052586        0.03092239        0.76268545        4.50000000        4.36713456
     5.99590042       13.89768627        0.03231040        0.76208911        4.50000000        4.35724981
     6.14814796       13.97484668        0.03368088        0.76150524        4.50000000        4.34743662
     6.29609260       14.05200710        0.03503667        0.76093227        4.50000000        4.33769306
     6.44020365       14.12916751        0.03638016        0.76036887        4.50000000        4.32801725
     6.58087428       14.20632792        0.03771332        0.75981395        4.50000000        4.31840738
     6.71843737       14.28348833        0.03903782        0.75926656        4.50000000        4.30886171
     6.85317757       14.36064874        0.04035511        0.75872589        4.50000000        4.29937855
     6.98534017       14.43780915        0.04166641        0.75819124        4.50000000        4.28995627
     7.11513829       14.51496957        0.04297278        0.75766201        4.50000000        4.28059329
     7.24275833       14.59212998        0.04427516        0.75713765        4.50000000        4.27128811
     7.36836428       14.66929039        0.04557435        0.75661770        4.50000000        4.26203924
     7.49210134       14.74645080        0.04687109        0.75610172        4.50000000        4.25284527
     7.61409865       14.82361121        0.04816599        0.75558936        4.50000000        4.24370483
     7.73447164       14.90077162        0.04945962        0.75508027        4.50000000        4.23461659
     7.85332399       14.97793204        0.05075250        0.75457414        4.50000000        4.22557928
     7.97074913       15.05509245        0.05204507        0.75407071        4.50000000        4.21659165
     8.08683163       15.13225286        0.05333773        0.75356972        4.50000000        4.20765250
     8.20164828       15.20941327        0.05463085        0.75307096        4.50000000        4.19876067
     8.31526906       15.28657368        0.05592477        0.75257420        4.50000000        4.18991505
     8.42775788       15.36373409        0.05721977        0.75207927        4.50000000        4.18111455
     8.53917341       15.44089451        0.05851615        0.75158598        4.50000000        4.17235812
     8.64956946       15.51805492        0.05981413        0.75109417        4.50000000        4.16364475
     8.75899567       15.59521533        0.06111395        0.75060371        4.50000000        4.15497344
     8.86749788       15.67237574        0.06241582        0.75011444        4.50000000        4.14634325
     8.97511855       15.74953615        0.06371993        0.74962625        4.50000000        4.13775326
     9.08189700       15.82669656        0.06502645        0.74913901        4.50000000        4.12920257
     9.18786983       15.90385697        0.06633554        0.74865261        4.50000000        4.12069033
     9.29307115       15.98101739        0.06764734        0.74816695        4.50000000        4.11221569
     9.39753274       16.05817780        0.06896201        0.74768193        4.50000000        4.10377784
     9.50128431       16.13533821        0.07027965        0.74719747        4.50000000        4.09537601
     9.60435372       16.21249862        0.07160039        0.74671347        4.50000000        4.08700943
     9.70676704       16.28965903        0.07292433        0.74622985        4.50000000        4.07867736
     9.80854880       16.36681944        0.07425158        0.74574655        4.50000000        4.07037909
     9.90972204       16.44397986        0.07558222        0.74526349        4.50000000        4.06211393
    10.01030847       16.52114027        0.07691634        0.74478061        4.50000000        4.05388120
    10.11032857       16.59830068        0.07825403        0.74429783        4.50000000        4.04568027
    10.20980169       16.67546109        0.07959535        0.74381510        4.50000000        4.03751050
    10.30874607       16.75262150        0.08094037        0.74333237        4.50000000        4.02937127
    10.40717906       16.82978191        0.08228916        0.74284958        4.50000000        4.02126200
    10.50511702       16.90694233        0.08364177        0.74236668        4.50000000        4.01318212
    10.60257553       16.98410274        0.08499827        0.74188362        4.50000000        4.00513106
    10.69956934       17.06126315        0.08635870        0.74140036        4.50000000        3.99710830
    10.79611250       17.13842356        0.08772311        0.74091684        4.50000000        3.98911329
    10.89221837       17.21558397        0.08909155        0.74043304        4.50000000        3.98114555
    10.98789965       17.29274438        0.09046406        0.73994890        4.50000000        3.97320457
    11.08316850       17.36990479        0.09184067        0.73946440        4.50000000        3.96528988
    11.17803646       17.44706521        0.09322143        0.73897949        4.50000000        3.95740101
    11.27251461       17.52422562        0.09460636        0.73849414        4.50000000        3.94953753
    11.36661347       17.60138603        0.09599550        0.73800832        4.50000000        3.94169898
    11.46034315       17.67854644        0.09738888        0.73752199        4.50000000        3.93388495
    11.55371330       17.75570685        0.09878652        0.73703513        4.50000000        3.92609502
    11.64673320       17.83286726        0.10018845        0.73654770        4.50000000        3.91832881
    11.73941170       17.91002768        0.10159469        0.73605968        4.50000000        3.91058592
    11.83175731       17.98718809        0.10300527        0.73557104        4.50000000        3.90286597
    11.92377819       18.06434850        0.10442020        0.73508175        4.50000000        3.89516861
    12.01548216       18.14150891        0.10583950        0.73459179        4.50000000        3.88749348
    12.10687680       18.21866932        0.10726320        0.73410114        4.50000000        3.87984023
    12.19796931       18.29582973        0.10869130        0.73360977        4.50000000        3.87220854
    12.28876667       18.37299015        0.11012382        0.73311766        4.50000000        3.86459808
    12.37927559       18.45015056        0.11156078        0.73262479        4.50000000        3.85700853
    12.46950254       18.52731097        0.11300219        0.73213114        4.50000000        3.84943960
    12.55945372       18.60447138        0.11444805        0.73163669        4.50000000        3.84189098
    12.64913516       18.68163179        0.11589839        0.73114141        4.50000000        3.83436239
    12.73855263       18.75879220        0.11735320        0.73064529        4.50000000        3.82685355
    12.82771172       18.83595262        0.11881250        0.73014832        4.50000000        3.81936419
    12.91661783       18.91311303        0.12027629        0.72965047        4.50000000        3.81189404
    13.00527616       18.99027344        0.12174459        0.72915173        4.50000000        3.80444285
    13.09369177       19.06743385        0.12321739        0.72865208        4.50000000        3.79701038
    13.18186952       19.14459426        0.12469470        0.72815151        4.50000000        3.78959637
    13.26981410       19.22175467        0.12617654        0.72764999        4.50000000        3.78220060
    13.35753010       19.29891508        0.12766289        0.72714753        4.50000000        3.77482283
    13.44502191       19.37607550        0.12915377        0.72664409        4.50000000        3.76746286
    13.53229381       19.45323591        0.13064918        0.72613968        4.50000000        3.76012045
    13.61934994       19.53039632        0.13214912        0.72563426        4.50000000        3.75279541
    13.70619432       19.60755673        0.13365359        0.72512784        4.50000000        3.74548752
    13.79283083       19.68471714        0.13516260        0.72462040        4.50000000        3.73819660
    13.87926325       19.76187755        0.13667613        0.72411193        4.50000000        3.73092245
    13.96549524       19.83903797        0.13819420        0.72360241        4.50000000        3.72366489
    14.05153035       19.91619838        0.13971681        0.72309183        4.50000000        3.71642372
    14.13737202       19.99335879        0.14124395        0.72258018        4.50000000        3.70919879
    14.22302362       20.07051920        0.14277562        0.72206745        4.50000000        3.70198992
    14.30848839       20.14767961        0.14431181        0.72155364        4.50000000        3.69479693
    14.39376950       20.22484002        0.14585254        0.72103872        4.50000000        3.68761968
    14.47887002       20.30200044        0.14739780        0.72052269        4.50000000        3.68045799
    14.56379295       20.37916085        0.14894757        0.72000554        4.50000000        3.67331173
    14.64854118       20.45632126        0.15050187        0.71948726        4.50000000        3.66618074
    14.73311754       20.53348167        0.15206069        0.71896784        4.50000000        3.65906487
    14.81752480       20.61064208        0.15362401        0.71844727        4.50000000        3.65196400
    14.90176562       20.68780249        0.15519185        0.71792555        4.50000000        3.64487797
    14.98584262       20.76496291        0.15676419        0.71740265        4.50000000        3.63780666
    15.06975835       20.84212332        0.15834104        0.71687859        4.50000000        3.63074994
    15.15351526       20.91928373        0.15992238        0.71635333        4.50000000        3.62370768
    15.23711578       20.99644414        0.16150821        0.71582689        4.50000000        3.61667977
    15.32056225       21.07360455        0.16309853        0.71529924        4.50000000        3.60966608
    15.40385697       21.15076496        0.16469333        0.71477039        4.50000000        3.60266649
    15.48700218       21.22792537        0.16629260        0.71424032        4.50000000        3.59568090
    15.57000004       21.30508579        0.16789634        0.71370903        4.50000000        3.58870920
    15.65285270       21.38224620        0.16950455        0.71317651        4.50000000        3.58175127
    15.73556221       21.45940661        0.17111721        0.71264275        4.50000000        3.57480703
    15.81813061       21.53656702        0.17273432        0.71210775        4.50000000        3.56787635
    15.90055986       21.61372743        0.17435587        0.71157149        4.50000000        3.56095916
    15.98285191       21.69088784        0.17598186        0.71103398        4.50000000        3.55405534
    16.06500863       21.76804826        0.17761228        0.71049520        4.50000000        3.54716482
    16.14703186       21.84520867        0.17924712        0.70995515        4.50000000        3.54028750
    16.22892340       21.92236908        0.18088637        0.70941383        4.50000000        3.53342328
    16.31068501       21.99952949        0.18253003        0.70887122        4.50000000        3.52657210
    16.39231839       22.07668990        0.18417809        0.70832732        4.50000000        3.51973385
    16.47382523       22.15385031        0.18583054        0.70778212        4.50000000        3.51290847
    16.55520717       22.23101073        0.18748738        0.70723562        4.50000000        3.50609587
    16.63646581       22.30817114        0.18914858        0.70668781        4.50000000        3.49929598
    16.71760271       22.38533155        0.19081416        0.70613869        4.50000000        3.49250872
    16.79861941       22.46249196        0.19248408        0.70558825        4.50000000        3.48573401
    16.87951741       22.53965237        0.19415836        0.70503648        4.50000000        3.47897179
    16.96029817       22.61681278        0.19583698        0.70448338        4.50000000        3.47222200
    17.04096313       22.69397319        0.19751993        0.70392895        4.50000000        3.46548455
    17.12151370       22.77113361        0.19920720        0.70337318        4.50000000        3.45875938
    17.20195124       22.84829402        0.20089879        0.70281605        4.50000000        3.45204644
    17.28227710       22.92545443        0.20259467        0.70225758        4.50000000        3.44534566
    17.36249260       23.00261484        0.20429485        0.70169775        4.50000000        3.43865697
    17.44259904       23.07977525        0.20599932        0.70113655        4.50000000        3.43198032
    17.52259767       23.15693566        0.20770806        0.70057399        4.50000000        3.42531565
    17.60248972       23.23409608        0.20942106        0.70001006        4.50000000        3.41866291
    17.68227641       23.31125649        0.21113832        0.69944475        4.50000000        3.41202204
    17.76195895       23.38841690        0.21285983        0.69887806        4.50000000        3.40539298
    17.84153846       23.46557731        0.21458557        0.69830998        4.50000000        3.39877568
    17.92101611       23.54273772        0.21631554        0.69774051        4.50000000        3.39217010
    18.00039301       23.61989813        0.21804972        0.69716964        4.50000000        3.38557618
    18.07967025       23.69705855        0.21978810        0.69659737        4.50000000        3.37899388
    18.15884890       23.77421896        0.22153068        0.69602370        4.50000000        3.37242314
    18.23793002       23.85137937        0.22327744        0.69544861        4.50000000        3.36586392
    18.31691463       23.92853978        0.22502838        0.69487212        4.50000000        3.35931618
    18.39580376       24.00570019        0.22678348        0.69429420        4.50000000        3.35277987
    18.47459839       24.08286060        0.22854273        0.69371486        4.50000000        3.34625495
    18.55329948       24.16002102        0.23030611        0.69313409        4.50000000        3.33974137
    18.63190801       24.23718143        0.23207363        0.69255189        4.50000000        3.33323910
    18.71042489       24.31434184        0.23384527        0.69196825        4.50000000        3.32674810
    18.78885106       24.39150225        0.23562102        0.69138318        4.50000000        3.32026831
    18.86718741       24.46866266        0.23740086        0.69079666        4.50000000        3.31379972
    18.94543482       24.54582307        0.23918479        0.69020868        4.50000000        3.30734228
    19.02359416       24.62298348        0.24097279        0.68961926        4.50000000        3.30089595
    19.10166628       24.70014390        0.24276485        0.68902838        4.50000000        3.29446069
    19.17965202       24.77730431        0.24456097        0.68843603        4.50000000        3.28803648
    19.25755219       24.85446472        0.24636112        0.68784222        4.50000000        3.28162328
    19.33536761       24.93162513        0.24816530        0.68724694        4.50000000        3.27522105
    19.41309905       25.00878554        0.24997350        0.68665019        4.50000000        3.26882976
    19.49074729       25.08594595        0.25178571        0.68605195        4.50000000        3.26244938
    19.56831310       25.16310637        0.25360190        0.68545224        4.50000000        3.25607987
    19.64579723       25.24026678        0.25542208        0.68485104        4.50000000        3.24972122
    19.72320040       25.31742719        0.25724623        0.68424834        4.50000000        3.24337337
    19.80052334       25.39458760        0.25907433        0.68364416        4.50000000        3.23703632
    19.87776675       25.47174801        0.26090638        0.68303847        4.50000000        3.23071002
    19.95493133       25.54890842        0.26274237        0.68243129        4.50000000        3.22439444
    20.03201777       25.62606884        0.26458227        0.68182259        4.50000000        3.21808957
    20.10902673       25.70322925        0.26642608        0.68121239        4.50000000        3.21179537
    20.18595887       25.78038966        0.26827379        0.68060067        4.50000000        3.20551182
    20.26281484       25.85755007        0.27012539        0.67998744        4.50000000        3.19923888
    20.33959527       25.93471048        0.27198085        0.67937268        4.50000000        3.19297654
    20.41630079       26.01187089        0.27384018        0.67875640        4.50000000        3.18672476
    20.49293201       26.08903130        0.27570335        0.67813858        4.50000000        3.18048353
    20.56948954       26.16619172        0.27757036        0.67751923        4.50000000        3.17425281
    20.64597397       26.24335213        0.27944119        0.67689835        4.50000000        3.16803258
    20.72238588       26.32051254        0.28131583        0.67627592        4.50000000        3.16182282
    20.79872583       26.39767295        0.28319427        0.67565195        4.50000000        3.15562351
    20.87499441       26.47483336        0.28507649        0.67502643        4.50000000        3.14943462
    20.95119215       26.55199377        0.28696248        0.67439935        4.50000000        3.14325613
    21.02731960       26.62915419        0.28885223        0.67377072        4.50000000        3.13708802
    21.10337729       26.70631460        0.29074573        0.67314052        4.50000000        3.13093026
