#  Theta paroi en deg Angle Choc en deg       Kp           Inverse Mach       Mach amont       Mach aval
     0.00000000       56.44269024        0.00000000        0.16666667        1.20000000
     2.11156600       56.44369696        0.01061005        0.16095321        1.20000000        1.19997915
     2.37371453       56.44510554        0.01302315        0.15964830        1.20000000        1.19994998
     2.70941181       56.44771969        0.01640090        0.15781827        1.20000000        1.19989585
     3.10677962       56.45234314        0.02079664        0.15543062        1.20000000        1.19980012
     3.53701335       56.45977961        0.02601751        0.15258572        1.20000000        1.19964617
     3.98043344       56.47083281        0.03187624        0.14938137        1.20000000        1.19941742
     4.42677306       56.48630646        0.03824160        0.14588549        1.20000000        1.19909733
     4.87122742       56.50700427        0.04502814        0.14214145        1.20000000        1.19866941
     5.31176638       56.53372998        0.05218071        0.13817634        1.20000000        1.19811730
     5.74772401       56.56728729        0.05966358        0.13400671        1.20000000        1.19742472
     6.10549503       56.60084460        0.06609771        0.13040365        1.20000000        1.19673290
     6.41211814       56.63440191        0.07181832        0.12718608        1.20000000        1.19604182
     6.68232105       56.66795922        0.07701503        0.12425153        1.20000000        1.19535148
     6.92509186       56.70151653        0.08180708        0.12153554        1.20000000        1.19466189
     7.14635502       56.73507384        0.08627504        0.11899451        1.20000000        1.19397304
     7.35024002       56.76863114        0.09047631        0.11659740        1.20000000        1.19328494
     7.53975011       56.80218845        0.09445339        0.11432121        1.20000000        1.19259758
     7.71714375       56.83574576        0.09823878        0.11214834        1.20000000        1.19191096
     7.88416585       56.86930307        0.10185797        0.11006498        1.20000000        1.19122508
     8.04219498       56.90286038        0.10533137        0.10806010        1.20000000        1.19053994
     8.19234085       56.93641769        0.10867560        0.10612468        1.20000000        1.18985554
     8.33551119       56.96997500        0.11190442        0.10425127        1.20000000        1.18917187
     8.47245870       57.00353231        0.11502937        0.10243362        1.20000000        1.18848894
     8.60381522       57.03708962        0.11806019        0.10066644        1.20000000        1.18780675
     8.73011657       57.07064693        0.12100527        0.09894520        1.20000000        1.18712529
     8.85182155       57.10420424        0.12387182        0.09726599        1.20000000        1.18644456
     8.96932626       57.13776155        0.12666611        0.09562540        1.20000000        1.18576457
     9.08297520       57.17131886        0.12939366        0.09402045        1.20000000        1.18508531
     9.19307009       57.20487617        0.13205932        0.09244850        1.20000000        1.18440679
     9.29987677       57.23843348        0.13466740        0.09090722        1.20000000        1.18372899
     9.40363076       57.27199079        0.13722174        0.08939453        1.20000000        1.18305192
     9.50454182       57.30554810        0.13972578        0.08790856        1.20000000        1.18237558
     9.60279770       57.33910541        0.14218262        0.08644762        1.20000000        1.18169997
     9.69856702       57.37266272        0.14459506        0.08501021        1.20000000        1.18102508
     9.79200202       57.40622003        0.14696564        0.08359495        1.20000000        1.18035093
     9.88324051       57.43977734        0.14929666        0.08220058        1.20000000        1.17967749
     9.97240776       57.47333465        0.15159024        0.08082596        1.20000000        1.17900478
    10.05961799       57.50689196        0.15384832        0.07947004        1.20000000        1.17833280
    10.14497561       57.54044927        0.15607266        0.07813185        1.20000000        1.17766154
    10.22857641       57.57400658        0.15826491        0.07681052        1.20000000        1.17699100
    10.31050843       57.60756389        0.16042657        0.07550521        1.20000000        1.17632118
    10.39085288       57.64112120        0.16255905        0.07421518        1.20000000        1.17565208
    10.46968472       57.67467851        0.16466363        0.07293972        1.20000000        1.17498370
    10.54707344       57.70823582        0.16674153        0.07167817        1.20000000        1.17431605
    10.62308346       57.74179313        0.16879386        0.07042993        1.20000000        1.17364910
    10.69777470       57.77535044        0.17082168        0.06919443        1.20000000        1.17298288
    10.77120298       57.80890775        0.17282596        0.06797114        1.20000000        1.17231737
    10.84342038       57.84246506        0.17480762        0.06675956        1.20000000        1.17165258
    10.91447562       57.87602237        0.17676752        0.06555923        1.20000000        1.17098851
    10.98441425       57.90957968        0.17870646        0.06436970        1.20000000        1.17032514
    11.05327904       57.94313699        0.18062521        0.06319057        1.20000000        1.16966249
    11.12111014       57.97669430        0.18252447        0.06202145        1.20000000        1.16900056
    11.18794530       58.01025161        0.18440494        0.06086197        1.20000000        1.16833933
    11.25382006       58.04380892        0.18626723        0.05971179        1.20000000        1.16767882
    11.31876798       58.07736623        0.18811195        0.05857058        1.20000000        1.16701902
    11.38282067       58.11092354        0.18993968        0.05743803        1.20000000        1.16635993
    11.44600807       58.14448085        0.19175095        0.05631386        1.20000000        1.16570154
    11.50835847       58.17803815        0.19354628        0.05519777        1.20000000        1.16504387
    11.56989869       58.21159546        0.19532615        0.05408951        1.20000000        1.16438690
    11.63065416       58.24515277        0.19709102        0.05298883        1.20000000        1.16373064
    11.69064899       58.27871008        0.19884134        0.05189549        1.20000000        1.16307509
    11.74990615       58.31226739        0.20057751        0.05080927        1.20000000        1.16242024
    11.80844742       58.34582470        0.20229995        0.04972994        1.20000000        1.16176609
    11.86629356       58.37938201        0.20400904        0.04865729        1.20000000        1.16111265
    11.92346436       58.41293932        0.20570512        0.04759114        1.20000000        1.16045992
    11.97997866       58.44649663        0.20738857        0.04653130        1.20000000        1.15980788
    12.03585446       58.48005394        0.20905969        0.04547758        1.20000000        1.15915655
    12.09110895       58.51361125        0.21071882        0.04442981        1.20000000        1.15850592
    12.14575854       58.54716856        0.21236626        0.04338783        1.20000000        1.15785599
    12.19981894       58.58072587        0.21400230        0.04235149        1.20000000        1.15720676
    12.25330519       58.61428318        0.21562721        0.04132061        1.20000000        1.15655823
    12.30623171       58.64784049        0.21724128        0.04029508        1.20000000        1.15591039
    12.35861225       58.68139780        0.21884474        0.03927473        1.20000000        1.15526326
    12.41046008       58.71495511        0.22043786        0.03825945        1.20000000        1.15461682
    12.46178788       58.74851242        0.22202086        0.03724910        1.20000000        1.15397108
    12.51260785       58.78206973        0.22359399        0.03624356        1.20000000        1.15332603
    12.56293170       58.81562704        0.22515745        0.03524270        1.20000000        1.15268168
    12.61277070       58.84918435        0.22671146        0.03424642        1.20000000        1.15203803
    12.66213566       58.88274166        0.22825622        0.03325461        1.20000000        1.15139507
    12.71103702       58.91629897        0.22979193        0.03226715        1.20000000        1.15075280
    12.75948481       58.94985628        0.23131879        0.03128394        1.20000000        1.15011122
    12.80748869       58.98341359        0.23283696        0.03030490        1.20000000        1.14947034
    12.85505798       59.01697090        0.23434663        0.02932991        1.20000000        1.14883015
    12.90220168       59.05052821        0.23584797        0.02835889        1.20000000        1.14819065
    12.94892842       59.08408552        0.23734115        0.02739175        1.20000000        1.14755184
    12.99524659       59.11764283        0.23882632        0.02642841        1.20000000        1.14691372
    13.04116425       59.15120014        0.24030363        0.02546877        1.20000000        1.14627629
    13.08668922       59.18475745        0.24177324        0.02451277        1.20000000        1.14563954
    13.13182904       59.21831476        0.24323528        0.02356032        1.20000000        1.14500349
    13.17659097       59.25187207        0.24468991        0.02261135        1.20000000        1.14436812
    13.22098209       59.28542938        0.24613725        0.02166578        1.20000000        1.14373344
    13.26500919       59.31898669        0.24757743        0.02072354        1.20000000        1.14309944
    13.30867890       59.35254400        0.24901058        0.01978458        1.20000000        1.14246613
    13.35199760       59.38610131        0.25043682        0.01884881        1.20000000        1.14183351
    13.39497149       59.41965862        0.25185627        0.01791617        1.20000000        1.14120157
    13.43760656       59.45321593        0.25326906        0.01698662        1.20000000        1.14057031
    13.47990861       59.48677324        0.25467528        0.01606007        1.20000000        1.13993974
    13.52188332       59.52033055        0.25607504        0.01513648        1.20000000        1.13930984
    13.56353612       59.55388786        0.25746846        0.01421578        1.20000000        1.13868063
    13.60487234       59.58744516        0.25885564        0.01329793        1.20000000        1.13805211
    13.64589711       59.62100247        0.26023667        0.01238287        1.20000000        1.13742426
    13.68661545       59.65455978        0.26161165        0.01147054        1.20000000        1.13679709
    13.72703221       59.68811709        0.26298068        0.01056090        1.20000000        1.13617061
    13.76715212       59.72167440        0.26434384        0.00965390        1.20000000        1.13554480
    13.80697974       59.75523171        0.26570123        0.00874949        1.20000000        1.13491967
    13.84651953       59.78878902        0.26705293        0.00784762        1.20000000        1.13429522
    13.88577584       59.82234633        0.26839903        0.00694825        1.20000000        1.13367145
    13.92475287       59.85590364        0.26973961        0.00605133        1.20000000        1.13304835
    13.96345472       59.88946095        0.27107474        0.00515682        1.20000000        1.13242594
    14.00188539       59.92301826        0.27240451        0.00426468        1.20000000        1.13180419
    14.04004875       59.95657557        0.27372899        0.00337487        1.20000000        1.13118313
    14.07794858       59.99013288        0.27504825        0.00248735        1.20000000        1.13056273
    14.11558856       60.02369019        0.27636238        0.00160208        1.20000000        1.12994302
    14.15297228       60.05724750        0.27767142        0.00071902        1.20000000        1.12932397
    14.19010323       60.09080481        0.27897547       -0.00016186        1.20000000        1.12870560
    14.22698481       60.12436212        0.28027457       -0.00104060        1.20000000        1.12808791
    14.26362034       60.15791943        0.28156880       -0.00191724        1.20000000        1.12747089
    14.30001305       60.19147674        0.28285822       -0.00279180        1.20000000        1.12685453
    14.33616610       60.22503405        0.28414289       -0.00366432        1.20000000        1.12623885
    14.37208256       60.25859136        0.28542287       -0.00453484        1.20000000        1.12562384
    14.40776543       60.29214867        0.28669822       -0.00540338        1.20000000        1.12500951
    14.44321765       60.32570598        0.28796900       -0.00626997        1.20000000        1.12439584
    14.47844205       60.35926329        0.28923526       -0.00713465        1.20000000        1.12378284
    14.51344145       60.39282060        0.29049706       -0.00799744        1.20000000        1.12317051
    14.54821854       60.42637791        0.29175445       -0.00885838        1.20000000        1.12255885
    14.58277601       60.45993522        0.29300749       -0.00971748        1.20000000        1.12194786
    14.61711644       60.49349253        0.29425622       -0.01057479        1.20000000        1.12133754
    14.65124237       60.52704984        0.29550069       -0.01143031        1.20000000        1.12072788
    14.68515628       60.56060715        0.29674096       -0.01228409        1.20000000        1.12011889
    14.71886058       60.59416446        0.29797707       -0.01313614        1.20000000        1.11951057
    14.75235765       60.62772177        0.29920907       -0.01398649        1.20000000        1.11890291
    14.78564980       60.66127908        0.30043700       -0.01483517        1.20000000        1.11829592
    14.81873929       60.69483639        0.30166091       -0.01568219        1.20000000        1.11768959
    14.85162834       60.72839370        0.30288084       -0.01652759        1.20000000        1.11708393
    14.88431911       60.76195101        0.30409683       -0.01737138        1.20000000        1.11647893
    14.91681371       60.79550832        0.30530894       -0.01821358        1.20000000        1.11587460
    14.94911421       60.82906563        0.30651718       -0.01905422        1.20000000        1.11527093
    14.98122265       60.86262294        0.30772162       -0.01989332        1.20000000        1.11466792
    15.01314100       60.89618025        0.30892228       -0.02073090        1.20000000        1.11406558
    15.04487121       60.92973756        0.31011920       -0.02156697        1.20000000        1.11346390
    15.07641516       60.96329487        0.31131243       -0.02240157        1.20000000        1.11286288
    15.10777474       60.99685217        0.31250200       -0.02323470        1.20000000        1.11226252
    15.13895175       61.03040948        0.31368794       -0.02406639        1.20000000        1.11166282
    15.16994797       61.06396679        0.31487029       -0.02489665        1.20000000        1.11106379
    15.20076517       61.09752410        0.31604908       -0.02572551        1.20000000        1.11046541
    15.23140504       61.13108141        0.31722436       -0.02655298        1.20000000        1.10986769
    15.26186926       61.16463872        0.31839614       -0.02737908        1.20000000        1.10927063
    15.29215948       61.19819603        0.31956447       -0.02820383        1.20000000        1.10867424
    15.32227732       61.23175334        0.32072938       -0.02902723        1.20000000        1.10807850
    15.35222433       61.26531065        0.32189089       -0.02984932        1.20000000        1.10748341
    15.38200208       61.29886796        0.32304904       -0.03067010        1.20000000        1.10688899
    15.41161208       61.33242527        0.32420386       -0.03148958        1.20000000        1.10629522
    15.44105581       61.36598258        0.32535538       -0.03230780        1.20000000        1.10570211
    15.47033474       61.39953989        0.32650362       -0.03312475        1.20000000        1.10510966
    15.49945029       61.43309720        0.32764861       -0.03394046        1.20000000        1.10451787
    15.52840386       61.46665451        0.32879039       -0.03475494        1.20000000        1.10392673
    15.55719684       61.50021182        0.32992898       -0.03556821        1.20000000        1.10333624
    15.58583057       61.53376913        0.33106441       -0.03638027        1.20000000        1.10274641
    15.61430637       61.56732644        0.33219670       -0.03719114        1.20000000        1.10215724
    15.64262556       61.60088375        0.33332587       -0.03800083        1.20000000        1.10156872
    15.67078939       61.63444106        0.33445196       -0.03880936        1.20000000        1.10098085
    15.69879912       61.66799837        0.33557499       -0.03961674        1.20000000        1.10039364
    15.72665598       61.70155568        0.33669498       -0.04042299        1.20000000        1.09980708
    15.75436119       61.73511299        0.33781196       -0.04122810        1.20000000        1.09922118
    15.78191590       61.76867030        0.33892595       -0.04203211        1.20000000        1.09863593
    15.80932130       61.80222761        0.34003697       -0.04283501        1.20000000        1.09805133
    15.83657853       61.83578492        0.34114505       -0.04363682        1.20000000        1.09746738
    15.86368870       61.86934223        0.34225021       -0.04443755        1.20000000        1.09688409
    15.89065291       61.90289954        0.34335247       -0.04523722        1.20000000        1.09630144
    15.91747225       61.93645685        0.34445184       -0.04603582        1.20000000        1.09571945
    15.94414778       61.97001416        0.34554837       -0.04683338        1.20000000        1.09513811
    15.97068054       62.00357147        0.34664205       -0.04762990        1.20000000        1.09455742
    15.99707155       62.03712878        0.34773292       -0.04842540        1.20000000        1.09397738
    16.02332184       62.07068609        0.34882099       -0.04921988        1.20000000        1.09339799
    16.04943237       62.10424340        0.34990629       -0.05001335        1.20000000        1.09281925
    16.07540413       62.13780071        0.35098882       -0.05080583        1.20000000        1.09224116
    16.10123807       62.17135802        0.35206862       -0.05159732        1.20000000        1.09166372
    16.12693514       62.20491533        0.35314570       -0.05238783        1.20000000        1.09108692
    16.15249625       62.23847264        0.35422008       -0.05317737        1.20000000        1.09051078
    16.17792232       62.27202995        0.35529177       -0.05396595        1.20000000        1.08993528
    16.20321423       62.30558726        0.35636080       -0.05475358        1.20000000        1.08936044
    16.22837286       62.33914457        0.35742718       -0.05554027        1.20000000        1.08878623
    16.25339909       62.37270188        0.35849093       -0.05632602        1.20000000        1.08821268
    16.27829374       62.40625918        0.35955206       -0.05711084        1.20000000        1.08763978
    16.30305767       62.43981649        0.36061060       -0.05789475        1.20000000        1.08706752
    16.32769168       62.47337380        0.36166655       -0.05867774        1.20000000        1.08649590
