#  Theta paroi en deg Angle Choc en deg       Kp           Inverse Mach       Mach amont       Mach aval
     0.00000000       55.05198628        0.00000000        0.18032787        1.22000000
     2.12898779       55.05303472        0.01062348        0.17465953        1.22000000        1.21997733
     2.40813530       55.05450167        0.01317494        0.17329260        1.22000000        1.21994561
     2.75975821       55.05722417        0.01669833        0.17140139        1.22000000        1.21988675
     3.17182644       55.06203923        0.02124437        0.16895506        1.22000000        1.21978266
     3.61547952       55.06978388        0.02661570        0.16605551        1.22000000        1.21961527
     4.07134635       55.08129515        0.03262409        0.16280018        1.22000000        1.21936654
     4.52946900       55.09741007        0.03913875        0.15925616        1.22000000        1.21901849
     4.98527399       55.11896566        0.04607510        0.15546599        1.22000000        1.21855322
     5.43690053       55.14679895        0.05337899        0.15145598        1.22000000        1.21795291
     5.88381247       55.18174696        0.06101576        0.14724195        1.22000000        1.21719990
     6.25063528       55.21669497        0.06758023        0.14360193        1.22000000        1.21644772
     6.56510111       55.25164299        0.07341606        0.14035196        1.22000000        1.21569636
     6.84230358       55.28659100        0.07871740        0.13738807        1.22000000        1.21494584
     7.09144918       55.32153902        0.08360623        0.13464490        1.22000000        1.21419615
     7.31860385       55.35648703        0.08816495        0.13207829        1.22000000        1.21344728
     7.52799426       55.39143504        0.09245216        0.12965681        1.22000000        1.21269923
     7.72269350       55.42638306        0.09651127        0.12735719        1.22000000        1.21195201
     7.90501206       55.46133107        0.10037546        0.12516162        1.22000000        1.21120561
     8.07673467       55.49627908        0.10407073        0.12305616        1.22000000        1.21046004
     8.23927109       55.53122710        0.10761788        0.12102964        1.22000000        1.20971528
     8.39375603       55.56617511        0.11103386        0.11907296        1.22000000        1.20897134
     8.54111742       55.60112313        0.11433270        0.11717860        1.22000000        1.20822822
     8.68212476       55.63607114        0.11752613        0.11534025        1.22000000        1.20748592
     8.81742377       55.67101915        0.12062410        0.11355257        1.22000000        1.20674443
     8.94756206       55.70596717        0.12363513        0.11181099        1.22000000        1.20600376
     9.07300846       55.74091518        0.12656656        0.11011156        1.22000000        1.20526390
     9.19416770       55.77586319        0.12942478        0.10845084        1.22000000        1.20452485
     9.31139174       55.81081121        0.13221541        0.10682584        1.22000000        1.20378661
     9.42498879       55.84575922        0.13494336        0.10523389        1.22000000        1.20304918
     9.53523042       55.88070724        0.13761303        0.10367264        1.22000000        1.20231256
     9.64235720       55.91565525        0.14022833        0.10214000        1.22000000        1.20157675
     9.74658336       55.95060326        0.14279273        0.10063409        1.22000000        1.20084174
     9.84810064       55.98555128        0.14530941        0.09915320        1.22000000        1.20010754
     9.94708124       56.02049929        0.14778119        0.09769582        1.22000000        1.19937415
    10.04368059       56.05544730        0.15021066        0.09626056        1.22000000        1.19864155
    10.13803945       56.09039532        0.15260017        0.09484616        1.22000000        1.19790976
    10.23028568       56.12534333        0.15495185        0.09345147        1.22000000        1.19717877
    10.32053590       56.16029134        0.15726767        0.09207542        1.22000000        1.19644858
    10.40889672       56.19523936        0.15954944        0.09071706        1.22000000        1.19571919
    10.49546589       56.23018737        0.16179881        0.08937549        1.22000000        1.19499060
    10.58033332       56.26513539        0.16401732        0.08804988        1.22000000        1.19426280
    10.66358187       56.30008340        0.16620638        0.08673948        1.22000000        1.19353580
    10.74528806       56.33503141        0.16836731        0.08544357        1.22000000        1.19280959
    10.82552280       56.36997943        0.17050134        0.08416151        1.22000000        1.19208418
    10.90435184       56.40492744        0.17260959        0.08289267        1.22000000        1.19135956
    10.98183633       56.43987545        0.17469313        0.08163649        1.22000000        1.19063573
    11.05803325       56.47482347        0.17675295        0.08039243        1.22000000        1.18991269
    11.13299572       56.50977148        0.17878999        0.07916000        1.22000000        1.18919044
    11.20677344       56.54471950        0.18080511        0.07793872        1.22000000        1.18846898
    11.27941292       56.57966751        0.18279913        0.07672817        1.22000000        1.18774831
    11.35095778       56.61461552        0.18477282        0.07552791        1.22000000        1.18702842
    11.42144896       56.64956354        0.18672690        0.07433757        1.22000000        1.18630932
    11.49092500       56.68451155        0.18866207        0.07315677        1.22000000        1.18559100
    11.55942214       56.71945956        0.19057895        0.07198518        1.22000000        1.18487347
    11.62697462       56.75440758        0.19247816        0.07082246        1.22000000        1.18415671
    11.69361469       56.78935559        0.19436028        0.06966830        1.22000000        1.18344074
    11.75937286       56.82430361        0.19622586        0.06852241        1.22000000        1.18272556
    11.82427802       56.85925162        0.19807541        0.06738451        1.22000000        1.18201115
    11.88835750       56.89419963        0.19990943        0.06625433        1.22000000        1.18129752
    11.95163724       56.92914765        0.20172837        0.06513163        1.22000000        1.18058466
    12.01414184       56.96409566        0.20353270        0.06401616        1.22000000        1.17987259
    12.07589470       56.99904367        0.20532283        0.06290770        1.22000000        1.17916129
    12.13691804       57.03399169        0.20709916        0.06180603        1.22000000        1.17845076
    12.19723305       57.06893970        0.20886208        0.06071094        1.22000000        1.17774101
    12.25685987       57.10388772        0.21061196        0.05962224        1.22000000        1.17703203
    12.31581773       57.13883573        0.21234915        0.05853973        1.22000000        1.17632383
    12.37412500       57.17378374        0.21407399        0.05746324        1.22000000        1.17561639
    12.43179916       57.20873176        0.21578679        0.05639259        1.22000000        1.17490973
    12.48885698       57.24367977        0.21748786        0.05532762        1.22000000        1.17420384
    12.54531447       57.27862778        0.21917750        0.05426817        1.22000000        1.17349871
    12.60118694       57.31357580        0.22085599        0.05321409        1.22000000        1.17279435
    12.65648907       57.34852381        0.22252360        0.05216523        1.22000000        1.17209076
    12.71123494       57.38347183        0.22418059        0.05112145        1.22000000        1.17138794
    12.76543801       57.41841984        0.22582721        0.05008262        1.22000000        1.17068588
    12.81911126       57.45336785        0.22746370        0.04904861        1.22000000        1.16998458
    12.87226708       57.48831587        0.22909029        0.04801930        1.22000000        1.16928405
    12.92491744       57.52326388        0.23070720        0.04699456        1.22000000        1.16858428
    12.97707378       57.55821189        0.23231465        0.04597429        1.22000000        1.16788527
    13.02874716       57.59315991        0.23391285        0.04495836        1.22000000        1.16718703
    13.07994819       57.62810792        0.23550198        0.04394668        1.22000000        1.16648954
    13.13068710       57.66305593        0.23708225        0.04293914        1.22000000        1.16579281
    13.18097372       57.69800395        0.23865383        0.04193564        1.22000000        1.16509684
    13.23081757       57.73295196        0.24021691        0.04093609        1.22000000        1.16440163
    13.28022779       57.76789998        0.24177165        0.03994039        1.22000000        1.16370718
    13.32921320       57.80284799        0.24331822        0.03894846        1.22000000        1.16301348
    13.37778232       57.83779600        0.24485679        0.03796021        1.22000000        1.16232054
    13.42594339       57.87274402        0.24638750        0.03697555        1.22000000        1.16162835
    13.47370434       57.90769203        0.24791052        0.03599441        1.22000000        1.16093692
    13.52107287       57.94264004        0.24942597        0.03501671        1.22000000        1.16024623
    13.56805639       57.97758806        0.25093400        0.03404237        1.22000000        1.15955630
    13.61466206       58.01253607        0.25243476        0.03307131        1.22000000        1.15886712
    13.66089687       58.04748409        0.25392836        0.03210348        1.22000000        1.15817870
    13.70676750       58.08243210        0.25541494        0.03113879        1.22000000        1.15749102
    13.75228048       58.11738011        0.25689462        0.03017719        1.22000000        1.15680409
    13.79744211       58.15232813        0.25836752        0.02921861        1.22000000        1.15611791
    13.84225850       58.18727614        0.25983376        0.02826299        1.22000000        1.15543247
    13.88673558       58.22222415        0.26129345        0.02731026        1.22000000        1.15474779
    13.93087907       58.25717217        0.26274669        0.02636037        1.22000000        1.15406385
    13.97469456       58.29212018        0.26419360        0.02541327        1.22000000        1.15338065
    14.01818743       58.32706820        0.26563428        0.02446888        1.22000000        1.15269820
    14.06136294       58.36201621        0.26706882        0.02352717        1.22000000        1.15201649
    14.10422617       58.39696422        0.26849733        0.02258809        1.22000000        1.15133553
    14.14678206       58.43191224        0.26991990        0.02165156        1.22000000        1.15065531
    14.18903543       58.46686025        0.27133662        0.02071756        1.22000000        1.14997583
    14.23099092       58.50180826        0.27274758        0.01978604        1.22000000        1.14929709
    14.27265308       58.53675628        0.27415287        0.01885693        1.22000000        1.14861909
    14.31402633       58.57170429        0.27555257        0.01793021        1.22000000        1.14794183
    14.35511493       58.60665231        0.27694677        0.01700582        1.22000000        1.14726531
    14.39592306       58.64160032        0.27833554        0.01608373        1.22000000        1.14658953
    14.43645478       58.67654833        0.27971896        0.01516389        1.22000000        1.14591448
    14.47671405       58.71149635        0.28109711        0.01424626        1.22000000        1.14524018
    14.51670470       58.74644436        0.28247006        0.01333080        1.22000000        1.14456660
    14.55643048       58.78139237        0.28383789        0.01241747        1.22000000        1.14389377
    14.59589504       58.81634039        0.28520066        0.01150624        1.22000000        1.14322167
    14.63510191       58.85128840        0.28655845        0.01059706        1.22000000        1.14255030
    14.67405458       58.88623641        0.28791131        0.00968991        1.22000000        1.14187967
    14.71275640       58.92118443        0.28925932        0.00878475        1.22000000        1.14120976
    14.75121067       58.95613244        0.29060254        0.00788154        1.22000000        1.14054060
    14.78942060       58.99108046        0.29194103        0.00698025        1.22000000        1.13987216
    14.82738931       59.02602847        0.29327485        0.00608085        1.22000000        1.13920445
    14.86511984       59.06097648        0.29460406        0.00518331        1.22000000        1.13853748
    14.90261519       59.09592450        0.29592871        0.00428759        1.22000000        1.13787123
    14.93987824       59.13087251        0.29724887        0.00339367        1.22000000        1.13720572
    14.97691184       59.16582052        0.29856459        0.00250152        1.22000000        1.13654093
    15.01371875       59.20076854        0.29987592        0.00161111        1.22000000        1.13587687
    15.05030168       59.23571655        0.30118292        0.00072240        1.22000000        1.13521353
    15.08666325       59.27066457        0.30248563       -0.00016461        1.22000000        1.13455093
    15.12280607       59.30561258        0.30378411       -0.00104998        1.22000000        1.13388905
    15.15873262       59.34056059        0.30507840       -0.00193371        1.22000000        1.13322789
    15.19444538       59.37550861        0.30636855       -0.00281583        1.22000000        1.13256746
    15.22994677       59.41045662        0.30765461       -0.00369638        1.22000000        1.13190775
    15.26523910       59.44540463        0.30893662       -0.00457537        1.22000000        1.13124877
    15.30032470       59.48035265        0.31021464       -0.00545282        1.22000000        1.13059051
    15.33520581       59.51530066        0.31148869       -0.00632877        1.22000000        1.12993298
    15.36988463       59.55024868        0.31275884       -0.00720323        1.22000000        1.12927616
    15.40436329       59.58519669        0.31402510       -0.00807622        1.22000000        1.12862007
    15.43864392       59.62014470        0.31528754       -0.00894777        1.22000000        1.12796469
    15.47272855       59.65509272        0.31654619       -0.00981790        1.22000000        1.12731004
    15.50661921       59.69004073        0.31780108       -0.01068663        1.22000000        1.12665611
    15.54031787       59.72498874        0.31905225       -0.01155397        1.22000000        1.12600290
    15.57382644       59.75993676        0.32029975       -0.01241996        1.22000000        1.12535040
    15.60714684       59.79488477        0.32154361       -0.01328460        1.22000000        1.12469862
    15.64028089       59.82983279        0.32278387       -0.01414792        1.22000000        1.12404757
    15.67323041       59.86478080        0.32402056       -0.01500994        1.22000000        1.12339722
    15.70599717       59.89972881        0.32525371       -0.01587067        1.22000000        1.12274760
    15.73858291       59.93467683        0.32648336       -0.01673013        1.22000000        1.12209869
    15.77098933       59.96962484        0.32770954       -0.01758834        1.22000000        1.12145049
    15.80321809       60.00457285        0.32893229       -0.01844532        1.22000000        1.12080301
    15.83527083       60.03952087        0.33015163       -0.01930108        1.22000000        1.12015625
    15.86714915       60.07446888        0.33136760       -0.02015563        1.22000000        1.11951020
    15.89885462       60.10941690        0.33258023       -0.02100901        1.22000000        1.11886486
    15.93038876       60.14436491        0.33378955       -0.02186121        1.22000000        1.11822024
    15.96175311       60.17931292        0.33499559       -0.02271226        1.22000000        1.11757632
    15.99294912       60.21426094        0.33619837       -0.02356218        1.22000000        1.11693312
    16.02397825       60.24920895        0.33739793       -0.02441096        1.22000000        1.11629064
    16.05484192       60.28415696        0.33859429       -0.02525864        1.22000000        1.11564886
    16.08554153       60.31910498        0.33978748       -0.02610523        1.22000000        1.11500779
    16.11607843       60.35405299        0.34097753       -0.02695073        1.22000000        1.11436743
    16.14645398       60.38900100        0.34216445       -0.02779516        1.22000000        1.11372779
    16.17666948       60.42394902        0.34334829       -0.02863854        1.22000000        1.11308885
    16.20672624       60.45889703        0.34452906       -0.02948088        1.22000000        1.11245062
    16.23662551       60.49384505        0.34570679       -0.03032219        1.22000000        1.11181310
    16.26636855       60.52879306        0.34688150       -0.03116248        1.22000000        1.11117628
    16.29595656       60.56374107        0.34805321       -0.03200177        1.22000000        1.11054018
    16.32539075       60.59868909        0.34922196       -0.03284006        1.22000000        1.10990478
    16.35467230       60.63363710        0.35038776       -0.03367738        1.22000000        1.10927008
    16.38380237       60.66858511        0.35155063       -0.03451372        1.22000000        1.10863609
    16.41278207       60.70353313        0.35271060       -0.03534911        1.22000000        1.10800281
    16.44161254       60.73848114        0.35386769       -0.03618356        1.22000000        1.10737024
    16.47029486       60.77342916        0.35502191       -0.03701706        1.22000000        1.10673836
    16.49883011       60.80837717        0.35617330       -0.03784965        1.22000000        1.10610720
    16.52721933       60.84332518        0.35732187       -0.03868131        1.22000000        1.10547673
    16.55546358       60.87827320        0.35846764       -0.03951208        1.22000000        1.10484697
    16.58356386       60.91322121        0.35961063       -0.04034195        1.22000000        1.10421791
    16.61152118       60.94816922        0.36075087       -0.04117093        1.22000000        1.10358956
    16.63933652       60.98311724        0.36188836       -0.04199905        1.22000000        1.10296190
    16.66701084       61.01806525        0.36302313       -0.04282629        1.22000000        1.10233495
    16.69454510       61.05301327        0.36415520       -0.04365268        1.22000000        1.10170870
    16.72194022       61.08796128        0.36528459       -0.04447823        1.22000000        1.10108315
    16.74919714       61.12290929        0.36641131       -0.04530293        1.22000000        1.10045831
    16.77631674       61.15785731        0.36753538       -0.04612681        1.22000000        1.09983416
    16.80329991       61.19280532        0.36865681       -0.04694987        1.22000000        1.09921071
    16.83014752       61.22775333        0.36977563       -0.04777211        1.22000000        1.09858796
    16.85686043       61.26270135        0.37089186       -0.04859355        1.22000000        1.09796591
    16.88343949       61.29764936        0.37200550       -0.04941420        1.22000000        1.09734456
    16.90988551       61.33259738        0.37311657       -0.05023406        1.22000000        1.09672391
