#  Theta paroi en deg Angle Choc en deg       Kp           Inverse Mach       Mach amont       Mach aval
     0.00000000       29.51232927        0.00000000        0.50738916        2.03000000
     1.98568576       29.51414390        0.00726979        0.50413417        2.03000000        2.02991621
     2.38083754       29.51668289        0.00987356        0.50297376        2.03000000        2.02979898
     2.81256851       29.52139496        0.01305059        0.50156162        2.03000000        2.02958145
     3.28144427       29.52972881        0.01686393        0.49987199        2.03000000        2.02919686
     3.76678186       29.54313318        0.02118138        0.49796584        2.03000000        2.02857860
     4.25608353       29.56305677        0.02589153        0.49589438        2.03000000        2.02766038
     4.74414367       29.59094831        0.03092783        0.49368852        2.03000000        2.02637644
     5.22962247       29.62825651        0.03625682        0.49136430        2.03000000        2.02466173
     5.71299938       29.67643008        0.04186649        0.48892820        2.03000000        2.02245218
     6.19556538       29.73691776        0.04775869        0.48638061        2.03000000        2.01968503
     6.59598560       29.79740543        0.05286310        0.48418258        2.03000000        2.01692583
     6.94306549       29.85789310        0.05744200        0.48221764        2.03000000        2.01417450
     7.25237040       29.91838077        0.06164138        0.48042104        2.03000000        2.01143097
     7.53334481       29.97886844        0.06555191        0.47875257        2.03000000        2.00869515
     7.79218601       30.03935611        0.06923420        0.47718537        2.03000000        2.00596698
     8.03319786       30.09984378        0.07273103        0.47570050        2.03000000        2.00324637
     8.25950077       30.16033145        0.07607382        0.47428404        2.03000000        2.00053326
     8.47343513       30.22081912        0.07928643        0.47292543        2.03000000        1.99782758
     8.67680495       30.28130679        0.08238744        0.47161643        2.03000000        1.99512925
     8.87103251       30.34179446        0.08539162        0.47035051        2.03000000        1.99243820
     9.05726063       30.40228213        0.08831094        0.46912236        2.03000000        1.98975437
     9.23642254       30.46276980        0.09115526        0.46792763        2.03000000        1.98707769
     9.40929086       30.52325747        0.09393279        0.46676266        2.03000000        1.98440808
     9.57651321       30.58374515        0.09665043        0.46562440        2.03000000        1.98174549
     9.73863811       30.64423282        0.09931410        0.46451023        2.03000000        1.97908984
     9.89613461       30.70472049        0.10192886        0.46341789        2.03000000        1.97644107
    10.04940718       30.76520816        0.10449908        0.46234546        2.03000000        1.97379913
    10.19880724       30.82569583        0.10702861        0.46129121        2.03000000        1.97116393
    10.34464224       30.88618350        0.10952081        0.46025366        2.03000000        1.96853543
    10.48718274       30.94667117        0.11197863        0.45923148        2.03000000        1.96591355
    10.62666830       31.00715884        0.11440473        0.45822350        2.03000000        1.96329824
    10.76331203       31.06764651        0.11680144        0.45722868        2.03000000        1.96068945
    10.89730447       31.12813418        0.11917089        0.45624606        2.03000000        1.95808709
    11.02881672       31.18862185        0.12151497        0.45527480        2.03000000        1.95549113
    11.15800300       31.24910952        0.12383539        0.45431413        2.03000000        1.95290150
    11.28500289       31.30959719        0.12613371        0.45336336        2.03000000        1.95031815
    11.40994312       31.37008487        0.12841134        0.45242185        2.03000000        1.94774101
    11.53293918       31.43057254        0.13066957        0.45148902        2.03000000        1.94517003
    11.65409655       31.49106021        0.13290959        0.45056434        2.03000000        1.94260516
    11.77351194       31.55154788        0.13513248        0.44964732        2.03000000        1.94004634
    11.89127421       31.61203555        0.13733923        0.44873750        2.03000000        1.93749351
    12.00746516       31.67252322        0.13953076        0.44783448        2.03000000        1.93494663
    12.12216038       31.73301089        0.14170793        0.44693786        2.03000000        1.93240564
    12.23542978       31.79349856        0.14387151        0.44604729        2.03000000        1.92987049
    12.34733823       31.85398623        0.14602224        0.44516244        2.03000000        1.92734113
    12.45794595       31.91447390        0.14816079        0.44428300        2.03000000        1.92481750
    12.56730904       31.97496157        0.15028780        0.44340868        2.03000000        1.92229956
    12.67547982       32.03544924        0.15240385        0.44253920        2.03000000        1.91978725
    12.78250718       32.09593691        0.15450950        0.44167431        2.03000000        1.91728053
    12.88843682       32.15642458        0.15660525        0.44081379        2.03000000        1.91477935
    12.99331162       32.21691226        0.15869160        0.43995739        2.03000000        1.91228367
    13.09717180       32.27739993        0.16076898        0.43910493        2.03000000        1.90979342
    13.20005516       32.33788760        0.16283784        0.43825618        2.03000000        1.90730857
    13.30199729       32.39837527        0.16489855        0.43741098        2.03000000        1.90482908
    13.40303173       32.45886294        0.16695151        0.43656913        2.03000000        1.90235488
    13.50319012       32.51935061        0.16899707        0.43573049        2.03000000        1.89988595
    13.60250234       32.57983828        0.17103555        0.43489488        2.03000000        1.89742223
    13.70099667       32.64032595        0.17306728        0.43406216        2.03000000        1.89496369
    13.79869986       32.70081362        0.17509256        0.43323218        2.03000000        1.89251027
    13.89563729       32.76130129        0.17711167        0.43240481        2.03000000        1.89006193
    13.99183301       32.82178896        0.17912487        0.43157993        2.03000000        1.88761864
    14.08730989       32.88227663        0.18113242        0.43075740        2.03000000        1.88518034
    14.18208966       32.94276430        0.18313456        0.42993712        2.03000000        1.88274701
    14.27619295       33.00325197        0.18513152        0.42911896        2.03000000        1.88031859
    14.36963948       33.06373965        0.18712352        0.42830283        2.03000000        1.87789505
    14.46244798       33.12422732        0.18911076        0.42748863        2.03000000        1.87547634
    14.55463635       33.18471499        0.19109345        0.42667625        2.03000000        1.87306243
    14.64622167       33.24520266        0.19307176        0.42586560        2.03000000        1.87065328
    14.73722025       33.30569033        0.19504588        0.42505660        2.03000000        1.86824885
    14.82764768       33.36617800        0.19701598        0.42424915        2.03000000        1.86584909
    14.91751887       33.42666567        0.19898222        0.42344318        2.03000000        1.86345398
    15.00684812       33.48715334        0.20094476        0.42263861        2.03000000        1.86106347
    15.09564909       33.54764101        0.20290374        0.42183536        2.03000000        1.85867753
    15.18393491       33.60812868        0.20485930        0.42103336        2.03000000        1.85629613
    15.27171815       33.66861635        0.20681159        0.42023254        2.03000000        1.85391921
    15.35901088       33.72910402        0.20876073        0.41943284        2.03000000        1.85154676
    15.44582470       33.78959169        0.21070685        0.41863417        2.03000000        1.84917873
    15.53217074       33.85007936        0.21265006        0.41783650        2.03000000        1.84681509
    15.61805972       33.91056704        0.21459048        0.41703974        2.03000000        1.84445580
    15.70350193       33.97105471        0.21652822        0.41624386        2.03000000        1.84210084
    15.78850728       34.03154238        0.21846338        0.41544878        2.03000000        1.83975016
    15.87308533       34.09203005        0.22039606        0.41465445        2.03000000        1.83740373
    15.95724527       34.15251772        0.22232636        0.41386083        2.03000000        1.83506153
    16.04099596       34.21300539        0.22425438        0.41306787        2.03000000        1.83272351
    16.12434595       34.27349306        0.22618020        0.41227550        2.03000000        1.83038964
    16.20730348       34.33398073        0.22810390        0.41148369        2.03000000        1.82805990
    16.28987652       34.39446840        0.23002558        0.41069239        2.03000000        1.82573425
    16.37207274       34.45495607        0.23194530        0.40990155        2.03000000        1.82341266
    16.45389958       34.51544374        0.23386314        0.40911113        2.03000000        1.82109510
    16.53536420       34.57593141        0.23577918        0.40832109        2.03000000        1.81878154
    16.61647354       34.63641908        0.23769349        0.40753139        2.03000000        1.81647195
    16.69723432       34.69690676        0.23960614        0.40674199        2.03000000        1.81416630
    16.77765300       34.75739443        0.24151718        0.40595285        2.03000000        1.81186455
    16.85773589       34.81788210        0.24342669        0.40516393        2.03000000        1.80956669
    16.93748906       34.87836977        0.24533471        0.40437519        2.03000000        1.80727268
    17.01691840       34.93885744        0.24724132        0.40358661        2.03000000        1.80498249
    17.09602963       34.99934511        0.24914657        0.40279814        2.03000000        1.80269610
    17.17482827       35.05983278        0.25105051        0.40200975        2.03000000        1.80041347
    17.25331968       35.12032045        0.25295319        0.40122141        2.03000000        1.79813458
    17.33150908       35.18080812        0.25485466        0.40043309        2.03000000        1.79585941
    17.40940150       35.24129579        0.25675498        0.39964475        2.03000000        1.79358792
    17.48700186       35.30178346        0.25865418        0.39885638        2.03000000        1.79132009
    17.56431488       35.36227113        0.26055231        0.39806792        2.03000000        1.78905589
    17.64134522       35.42275880        0.26244943        0.39727937        2.03000000        1.78679529
    17.71809733       35.48324647        0.26434556        0.39649068        2.03000000        1.78453828
    17.79457559       35.54373415        0.26624075        0.39570184        2.03000000        1.78228482
    17.87078423       35.60422182        0.26813503        0.39491281        2.03000000        1.78003489
    17.94672736       35.66470949        0.27002846        0.39412357        2.03000000        1.77778847
    18.02240900       35.72519716        0.27192105        0.39333410        2.03000000        1.77554552
    18.09783303       35.78568483        0.27381285        0.39254436        2.03000000        1.77330603
    18.17300325       35.84617250        0.27570389        0.39175433        2.03000000        1.77106998
    18.24792334       35.90666017        0.27759420        0.39096400        2.03000000        1.76883732
    18.32259690       35.96714784        0.27948382        0.39017333        2.03000000        1.76660806
    18.39702741       36.02763551        0.28137277        0.38938230        2.03000000        1.76438215
    18.47121828       36.08812318        0.28326109        0.38859090        2.03000000        1.76215958
    18.54517284       36.14861085        0.28514880        0.38779909        2.03000000        1.75994032
    18.61889430       36.20909852        0.28703593        0.38700685        2.03000000        1.75772436
    18.69238581       36.26958619        0.28892251        0.38621418        2.03000000        1.75551167
    18.76565045       36.33007386        0.29080855        0.38542103        2.03000000        1.75330222
    18.83869120       36.39056154        0.29269410        0.38462741        2.03000000        1.75109600
    18.91151098       36.45104921        0.29457916        0.38383327        2.03000000        1.74889298
    18.98411264       36.51153688        0.29646377        0.38303861        2.03000000        1.74669315
    19.05649895       36.57202455        0.29834795        0.38224340        2.03000000        1.74449647
    19.12867262       36.63251222        0.30023171        0.38144763        2.03000000        1.74230294
    19.20063629       36.69299989        0.30211508        0.38065128        2.03000000        1.74011252
    19.27239253       36.75348756        0.30399807        0.37985432        2.03000000        1.73792521
    19.34394388       36.81397523        0.30588071        0.37905675        2.03000000        1.73574097
    19.41529279       36.87446290        0.30776302        0.37825853        2.03000000        1.73355979
    19.48644166       36.93495057        0.30964501        0.37745967        2.03000000        1.73138166
    19.55739282       36.99543824        0.31152670        0.37666013        2.03000000        1.72920654
    19.62814859       37.05592591        0.31340811        0.37585990        2.03000000        1.72703442
    19.69871118       37.11641358        0.31528925        0.37505897        2.03000000        1.72486528
    19.76908280       37.17690125        0.31717014        0.37425732        2.03000000        1.72269910
    19.83926557       37.23738893        0.31905079        0.37345492        2.03000000        1.72053586
    19.90926160       37.29787660        0.32093122        0.37265178        2.03000000        1.71837555
    19.97907292       37.35836427        0.32281144        0.37184787        2.03000000        1.71621815
    20.04870153       37.41885194        0.32469146        0.37104317        2.03000000        1.71406363
    20.11814939       37.47933961        0.32657131        0.37023767        2.03000000        1.71191199
    20.18741840       37.53982728        0.32845098        0.36943135        2.03000000        1.70976319
    20.25651044       37.60031495        0.33033049        0.36862421        2.03000000        1.70761723
    20.32542735       37.66080262        0.33220986        0.36781622        2.03000000        1.70547408
    20.39417089       37.72129029        0.33408909        0.36700738        2.03000000        1.70333374
    20.46274284       37.78177796        0.33596820        0.36619766        2.03000000        1.70119618
    20.53114491       37.84226563        0.33784719        0.36538705        2.03000000        1.69906138
    20.59937877       37.90275330        0.33972607        0.36457555        2.03000000        1.69692933
    20.66744607       37.96324097        0.34160486        0.36376313        2.03000000        1.69480002
    20.73534842       38.02372864        0.34348356        0.36294978        2.03000000        1.69267342
    20.80308738       38.08421632        0.34536218        0.36213549        2.03000000        1.69054952
    20.87066452       38.14470399        0.34724074        0.36132025        2.03000000        1.68842830
    20.93808134       38.20519166        0.34911922        0.36050404        2.03000000        1.68630975
    21.00533933       38.26567933        0.35099766        0.35968685        2.03000000        1.68419386
    21.07243992       38.32616700        0.35287604        0.35886867        2.03000000        1.68208060
    21.13938455       38.38665467        0.35475439        0.35804948        2.03000000        1.67996996
    21.20617460       38.44714234        0.35663270        0.35722928        2.03000000        1.67786193
    21.27281146       38.50763001        0.35851098        0.35640804        2.03000000        1.67575649
    21.33929644       38.56811768        0.36038923        0.35558577        2.03000000        1.67365363
    21.40563087       38.62860535        0.36226748        0.35476243        2.03000000        1.67155333
    21.47181603       38.68909302        0.36414570        0.35393804        2.03000000        1.66945558
    21.53785318       38.74958069        0.36602393        0.35311256        2.03000000        1.66736036
    21.60374356       38.81006836        0.36790215        0.35228600        2.03000000        1.66526765
    21.66948838       38.87055604        0.36978037        0.35145833        2.03000000        1.66317746
    21.73508883       38.93104371        0.37165860        0.35062955        2.03000000        1.66108975
    21.80054608       38.99153138        0.37353684        0.34979965        2.03000000        1.65900452
    21.86586126       39.05201905        0.37541509        0.34896862        2.03000000        1.65692175
    21.93103551       39.11250672        0.37729337        0.34813643        2.03000000        1.65484144
    21.99606992       39.17299439        0.37917166        0.34730309        2.03000000        1.65276356
    22.06096558       39.23348206        0.38104998        0.34646858        2.03000000        1.65068810
    22.12572353       39.29396973        0.38292833        0.34563289        2.03000000        1.64861505
    22.19034483       39.35445740        0.38480671        0.34479602        2.03000000        1.64654440
    22.25483048       39.41494507        0.38668512        0.34395794        2.03000000        1.64447613
    22.31918151       39.47543274        0.38856356        0.34311865        2.03000000        1.64241024
    22.38339888       39.53592041        0.39044204        0.34227814        2.03000000        1.64034671
    22.44748355       39.59640808        0.39232056        0.34143639        2.03000000        1.63828552
    22.51143649       39.65689575        0.39419912        0.34059341        2.03000000        1.63622666
    22.57525861       39.71738343        0.39607772        0.33974917        2.03000000        1.63417013
    22.63895083       39.77787110        0.39795636        0.33890366        2.03000000        1.63211591
    22.70251404       39.83835877        0.39983505        0.33805689        2.03000000        1.63006399
    22.76594913       39.89884644        0.40171378        0.33720883        2.03000000        1.62801435
    22.82925695       39.95933411        0.40359256        0.33635948        2.03000000        1.62596699
    22.89243836       40.01982178        0.40547138        0.33550882        2.03000000        1.62392190
    22.95549418       40.08030945        0.40735025        0.33465686        2.03000000        1.62187905
    23.01842524       40.14079712        0.40922917        0.33380356        2.03000000        1.61983845
    23.08123234       40.20128479        0.41110814        0.33294894        2.03000000        1.61780007
    23.14391626       40.26177246        0.41298715        0.33209297        2.03000000        1.61576392
    23.20647778       40.32226013        0.41486621        0.33123566        2.03000000        1.61372997
    23.26891766       40.38274780        0.41674531        0.33037698        2.03000000        1.61169822
