#  Theta paroi en deg Angle Choc en deg       Kp           Inverse Mach       Mach amont       Mach aval
     0.00000000        6.37937021        0.00000000        0.88888889        9.00000000
     0.74908567        6.38187883        0.00083407        0.88810710        9.00000000        8.99875305
     0.90877021        6.38538883        0.00114646        0.88782183        9.00000000        8.99700969
     1.07905227        6.39190298        0.00151826        0.88748740        9.00000000        8.99377841
     1.26365384        6.40342404        0.00196333        0.88709407        9.00000000        8.98807672
     1.45730890        6.42195479        0.00247463        0.88665125        9.00000000        8.97894108
     1.65750100        6.44949798        0.00304897        0.88616481        9.00000000        8.96544105
     1.86415181        6.48805638        0.00368923        0.88563554        9.00000000        8.94669662
     2.07842151        6.53963276        0.00440292        0.88506071        9.00000000        8.92189707
     2.30202006        6.60622988        0.00520120        0.88443540        9.00000000        8.89031913
     2.53688126        6.68985051        0.00609827        0.88375318        9.00000000        8.85134193
     2.74146591        6.77347114        0.00692863        0.88313936        9.00000000        8.81307019
     2.92639669        6.85709177        0.00771858        0.88256981        9.00000000        8.77546081
     3.09740415        6.94071240        0.00848243        0.88203129        9.00000000        8.73847397
     3.25796128        7.02433303        0.00922894        0.88151567        9.00000000        8.70207291
     3.41034477        7.10795366        0.00996386        0.88101756        9.00000000        8.66622364
     3.55613449        7.19157429        0.01069115        0.88053317        9.00000000        8.63089469
     3.69647515        7.27519492        0.01141368        0.88005975        9.00000000        8.59605694
     3.83222493        7.35881555        0.01213360        0.87959521        9.00000000        8.56168337
     3.96404509        7.44243618        0.01285253        0.87913794        9.00000000        8.52774891
     4.09245690        7.52605681        0.01357176        0.87868665        9.00000000        8.49423030
     4.21787923        7.60967744        0.01429229        0.87824030        9.00000000        8.46110592
     4.34065418        7.69329807        0.01501494        0.87779806        9.00000000        8.42835569
     4.46106509        7.77691870        0.01574037        0.87735920        9.00000000        8.39596089
     4.57934962        7.86053933        0.01646915        0.87692315        9.00000000        8.36390414
     4.69570918        7.94415996        0.01720172        0.87648938        9.00000000        8.33216923
     4.81031616        8.02778059        0.01793847        0.87605748        9.00000000        8.30074106
     4.92331940        8.11140122        0.01867974        0.87562705        9.00000000        8.26960554
     5.03484841        8.19502185        0.01942579        0.87519779        9.00000000        8.23874956
     5.14501661        8.27864248        0.02017687        0.87476940        9.00000000        8.20816085
     5.25392398        8.36226311        0.02093319        0.87434163        9.00000000        8.17782797
     5.36165922        8.44588374        0.02169492        0.87391427        9.00000000        8.14774025
     5.46830139        8.52950437        0.02246222        0.87348710        9.00000000        8.11788770
     5.57392130        8.61312500        0.02323523        0.87305996        9.00000000        8.08826100
     5.67858267        8.69674562        0.02401407        0.87263269        9.00000000        8.05885143
     5.78234307        8.78036625        0.02479884        0.87220514        9.00000000        8.02965082
     5.88525477        8.86398688        0.02558963        0.87177719        9.00000000        8.00065155
     5.98736527        8.94760751        0.02638653        0.87134873        9.00000000        7.97184648
     6.08871801        9.03122814        0.02718961        0.87091964        9.00000000        7.94322893
     6.18935275        9.11484877        0.02799894        0.87048983        9.00000000        7.91479264
     6.28930606        9.19846940        0.02881456        0.87005921        9.00000000        7.88653176
     6.38861163        9.28209003        0.02963654        0.86962772        9.00000000        7.85844079
     6.48730054        9.36571066        0.03046492        0.86919526        9.00000000        7.83051460
     6.58540160        9.44933129        0.03129974        0.86876179        9.00000000        7.80274837
     6.68294155        9.53295192        0.03214104        0.86832723        9.00000000        7.77513759
     6.77994527        9.61657255        0.03298884        0.86789154        9.00000000        7.74767801
     6.87643587        9.70019318        0.03384318        0.86745466        9.00000000        7.72036569
     6.97243502        9.78381381        0.03470408        0.86701655        9.00000000        7.69319689
     7.06796293        9.86743444        0.03557157        0.86657717        9.00000000        7.66616814
     7.16303854        9.95105507        0.03644567        0.86613646        9.00000000        7.63927615
     7.25767967       10.03467570        0.03732639        0.86569441        9.00000000        7.61251786
     7.35190304       10.11829633        0.03821375        0.86525098        9.00000000        7.58589039
     7.44572433       10.20191696        0.03910777        0.86480613        9.00000000        7.55939103
     7.53915843       10.28553759        0.04000845        0.86435984        9.00000000        7.53301726
     7.63221928       10.36915822        0.04091582        0.86391208        9.00000000        7.50676669
     7.72492016       10.45277885        0.04182987        0.86346283        9.00000000        7.48063710
     7.81727356       10.53639948        0.04275062        0.86301208        9.00000000        7.45462637
     7.90929134       10.62002011        0.04367807        0.86255979        9.00000000        7.42873255
     8.00098474       10.70364074        0.04461223        0.86210595        9.00000000        7.40295378
     8.09236442       10.78726137        0.04555310        0.86165055        9.00000000        7.37728832
     8.18344055       10.87088200        0.04650069        0.86119356        9.00000000        7.35173455
     8.27422275       10.95450263        0.04745501        0.86073498        9.00000000        7.32629093
     8.36472021       11.03812326        0.04841604        0.86027480        9.00000000        7.30095602
     8.45494167       11.12174389        0.04938380        0.85981299        9.00000000        7.27572846
     8.54489549       11.20536452        0.05035829        0.85934956        9.00000000        7.25060699
     8.63458963       11.28898515        0.05133951        0.85888449        9.00000000        7.22559039
     8.72403169       11.37260578        0.05232745        0.85841777        9.00000000        7.20067755
     8.81322893       11.45622641        0.05332211        0.85794941        9.00000000        7.17586739
     8.90218836       11.53984704        0.05432350        0.85747938        9.00000000        7.15115893
     8.99091659       11.62346767        0.05533161        0.85700768        9.00000000        7.12655122
     9.07942001       11.70708830        0.05634644        0.85653431        9.00000000        7.10204338
     9.16770474       11.79070893        0.05736798        0.85605927        9.00000000        7.07763455
     9.25577667       11.87432956        0.05839624        0.85558254        9.00000000        7.05332397
     9.34364140       11.95795019        0.05943121        0.85510414        9.00000000        7.02911088
     9.43130434       12.04157082        0.06047289        0.85462404        9.00000000        7.00499457
     9.51877071       12.12519145        0.06152127        0.85414226        9.00000000        6.98097438
     9.60604547       12.20881208        0.06257634        0.85365879        9.00000000        6.95704969
     9.69313346       12.29243271        0.06363811        0.85317362        9.00000000        6.93321989
     9.78003927       12.37605334        0.06470657        0.85268676        9.00000000        6.90948443
     9.86676739       12.45967397        0.06578171        0.85219821        9.00000000        6.88584276
     9.95332208       12.54329460        0.06686352        0.85170796        9.00000000        6.86229437
    10.03970750       12.62691522        0.06795201        0.85121602        9.00000000        6.83883878
    10.12592762       12.71053585        0.06904716        0.85072238        9.00000000        6.81547554
    10.21198629       12.79415648        0.07014896        0.85022705        9.00000000        6.79220420
    10.29788722       12.87777711        0.07125743        0.84973003        9.00000000        6.76902434
    10.38363400       12.96139774        0.07237253        0.84923131        9.00000000        6.74593556
    10.46923008       13.04501837        0.07349427        0.84873091        9.00000000        6.72293748
    10.55467881       13.12863900        0.07462265        0.84822881        9.00000000        6.70002974
    10.63998344       13.21225963        0.07575765        0.84772503        9.00000000        6.67721196
    10.72514707       13.29588026        0.07689926        0.84721956        9.00000000        6.65448383
    10.81017273       13.37950089        0.07804749        0.84671241        9.00000000        6.63184501
    10.89506335       13.46312152        0.07920232        0.84620357        9.00000000        6.60929518
    10.97982177       13.54674215        0.08036373        0.84569306        9.00000000        6.58683405
    11.06445073       13.63036278        0.08153174        0.84518087        9.00000000        6.56446130
    11.14895287       13.71398341        0.08270632        0.84466701        9.00000000        6.54217667
    11.23333079       13.79760404        0.08388747        0.84415148        9.00000000        6.51997986
    11.31758697       13.88122467        0.08507518        0.84363428        9.00000000        6.49787060
    11.40172381       13.96484530        0.08626944        0.84311541        9.00000000        6.47584863
    11.48574370       14.04846593        0.08747025        0.84259488        9.00000000        6.45391369
    11.56964887       14.13208656        0.08867759        0.84207269        9.00000000        6.43206552
    11.65344156       14.21570719        0.08989146        0.84154885        9.00000000        6.41030387
    11.73712389       14.29932782        0.09111184        0.84102335        9.00000000        6.38862850
    11.82069796       14.38294845        0.09233873        0.84049621        9.00000000        6.36703917
    11.90416578       14.46656908        0.09357211        0.83996742        9.00000000        6.34553563
    11.98752930       14.55018971        0.09481199        0.83943698        9.00000000        6.32411764
    12.07079044       14.63381034        0.09605834        0.83890491        9.00000000        6.30278498
    12.15395107       14.71743097        0.09731117        0.83837120        9.00000000        6.28153741
    12.23701295       14.80105160        0.09857045        0.83783586        9.00000000        6.26037470
    12.31997787       14.88467223        0.09983618        0.83729889        9.00000000        6.23929662
    12.40284751       14.96829286        0.10110836        0.83676029        9.00000000        6.21830295
    12.48562353       15.05191349        0.10238696        0.83622007        9.00000000        6.19739344
    12.56830753       15.13553412        0.10367199        0.83567824        9.00000000        6.17656789
    12.65090110       15.21915475        0.10496342        0.83513479        9.00000000        6.15582605
    12.73340576       15.30277538        0.10626125        0.83458973        9.00000000        6.13516771
    12.81582298       15.38639601        0.10756548        0.83404306        9.00000000        6.11459264
    12.89815421       15.47001664        0.10887608        0.83349479        9.00000000        6.09410060
    12.98040087       15.55363727        0.11019305        0.83294491        9.00000000        6.07369138
    13.06256432       15.63725790        0.11151639        0.83239345        9.00000000        6.05336474
    13.14464591       15.72087853        0.11284606        0.83184038        9.00000000        6.03312045
    13.22664692       15.80449916        0.11418208        0.83128573        9.00000000        6.01295828
    13.30856864       15.88811979        0.11552442        0.83072950        9.00000000        5.99287801
    13.39041229       15.97174042        0.11687308        0.83017168        9.00000000        5.97287939
    13.47217908       16.05536105        0.11822804        0.82961228        9.00000000        5.95296221
    13.55387019       16.13898168        0.11958929        0.82905130        9.00000000        5.93312621
    13.63548676       16.22260231        0.12095683        0.82848875        9.00000000        5.91337117
    13.71702991       16.30622294        0.12233064        0.82792464        9.00000000        5.89369684
    13.79850073       16.38984357        0.12371071        0.82735896        9.00000000        5.87410300
    13.87990029       16.47346420        0.12509702        0.82679171        9.00000000        5.85458939
    13.96122961       16.55708483        0.12648958        0.82622291        9.00000000        5.83515577
    14.04248972       16.64070545        0.12788836        0.82565255        9.00000000        5.81580191
    14.12368160       16.72432608        0.12929335        0.82508064        9.00000000        5.79652755
    14.20480621       16.80794671        0.13070455        0.82450718        9.00000000        5.77733245
    14.28586451       16.89156734        0.13212194        0.82393217        9.00000000        5.75821637
    14.36685740       16.97518797        0.13354551        0.82335562        9.00000000        5.73917904
    14.44778578       17.05880860        0.13497524        0.82277753        9.00000000        5.72022021
    14.52865054       17.14242923        0.13641113        0.82219790        9.00000000        5.70133965
    14.60945253       17.22604986        0.13785317        0.82161674        9.00000000        5.68253708
    14.69019258       17.30967049        0.13930134        0.82103405        9.00000000        5.66381225
    14.77087151       17.39329112        0.14075563        0.82044982        9.00000000        5.64516490
    14.85149013       17.47691175        0.14221603        0.81986408        9.00000000        5.62659478
    14.93204920       17.56053238        0.14368252        0.81927680        9.00000000        5.60810161
    15.01254950       17.64415301        0.14515509        0.81868801        9.00000000        5.58968514
    15.09299176       17.72777364        0.14663374        0.81809771        9.00000000        5.57134511
    15.17337672       17.81139427        0.14811845        0.81750588        9.00000000        5.55308123
    15.25370509       17.89501490        0.14960920        0.81691255        9.00000000        5.53489325
    15.33397757       17.97863553        0.15110599        0.81631770        9.00000000        5.51678090
    15.41419483       18.06225616        0.15260880        0.81572135        9.00000000        5.49874390
    15.49435755       18.14587679        0.15411762        0.81512349        9.00000000        5.48078198
    15.57446636       18.22949742        0.15563244        0.81452412        9.00000000        5.46289487
    15.65452192       18.31311805        0.15715324        0.81392326        9.00000000        5.44508230
    15.73452484       18.39673868        0.15868001        0.81332090        9.00000000        5.42734397
    15.81447573       18.48035931        0.16021274        0.81271705        9.00000000        5.40967963
    15.89437519       18.56397994        0.16175142        0.81211169        9.00000000        5.39208898
    15.97422380       18.64760057        0.16329603        0.81150485        9.00000000        5.37457175
    16.05402212       18.73122120        0.16484655        0.81089652        9.00000000        5.35712765
    16.13377073       18.81484183        0.16640299        0.81028670        9.00000000        5.33975641
    16.21347016       18.89846246        0.16796532        0.80967539        9.00000000        5.32245773
    16.29312095       18.98208309        0.16953353        0.80906260        9.00000000        5.30523134
    16.37272362       19.06570372        0.17110760        0.80844833        9.00000000        5.28807694
    16.45227869       19.14932435        0.17268754        0.80783258        9.00000000        5.27099426
    16.53178665       19.23294498        0.17427331        0.80721534        9.00000000        5.25398299
    16.61124800       19.31656561        0.17586491        0.80659663        9.00000000        5.23704286
    16.69066321       19.40018624        0.17746232        0.80597644        9.00000000        5.22017357
    16.77003276       19.48380687        0.17906554        0.80535478        9.00000000        5.20337484
    16.84935710       19.56742750        0.18067454        0.80473165        9.00000000        5.18664637
    16.92863670       19.65104813        0.18228931        0.80410704        9.00000000        5.16998786
    17.00787197       19.73466876        0.18390985        0.80348097        9.00000000        5.15339904
    17.08706337       19.81828939        0.18553613        0.80285342        9.00000000        5.13687959
    17.16621131       19.90191002        0.18716814        0.80222441        9.00000000        5.12042924
    17.24531621       19.98553065        0.18880588        0.80159393        9.00000000        5.10404768
    17.32437846       20.06915128        0.19044931        0.80096199        9.00000000        5.08773463
    17.40339848       20.15277191        0.19209844        0.80032858        9.00000000        5.07148978
    17.48237664       20.23639254        0.19375325        0.79969371        9.00000000        5.05531284
    17.56131334       20.32001317        0.19541372        0.79905737        9.00000000        5.03920351
    17.64020893       20.40363380        0.19707984        0.79841957        9.00000000        5.02316150
    17.71906379       20.48725443        0.19875159        0.79778032        9.00000000        5.00718651
    17.79787828       20.57087506        0.20042897        0.79713960        9.00000000        4.99127824
    17.87665275       20.65449568        0.20211195        0.79649742        9.00000000        4.97543640
    17.95538753       20.73811631        0.20380052        0.79585378        9.00000000        4.95966069
    18.03408297       20.82173694        0.20549467        0.79520869        9.00000000        4.94395081
    18.11273939       20.90535757        0.20719439        0.79456213        9.00000000        4.92830647
    18.19135713       20.98897820        0.20889966        0.79391412        9.00000000        4.91272736
    18.26993648       21.07259883        0.21061046        0.79326466        9.00000000        4.89721318
    18.34847777       21.15621946        0.21232678        0.79261373        9.00000000        4.88176365
    18.42698129       21.23984009        0.21404860        0.79196135        9.00000000        4.86637846
    18.50544735       21.32346072        0.21577592        0.79130752        9.00000000        4.85105732
    18.58387624       21.40708135        0.21750872        0.79065223        9.00000000        4.83579992
