#  Theta paroi en deg Angle Choc en deg       Kp           Inverse Mach       Mach amont       Mach aval
     0.00000000        0.95497387        0.00000000        0.98333333       60.00000000
     0.18242604        0.95764522        0.00004099        0.98309727       60.00000000       59.94411136
     0.22291993        0.96138292        0.00005690        0.98301076       60.00000000       59.86634440
     0.26804294        0.96831963        0.00007685        0.98290582       60.00000000       59.72331912
     0.32029654        0.98058806        0.00010279        0.98277490       60.00000000       59.47433614
     0.37999059        1.00032088        0.00013607        0.98261497       60.00000000       59.08381756
     0.44802386        1.02965077        0.00017876        0.98242124       60.00000000       58.52379686
     0.52581880        1.07071042        0.00023383        0.98218656       60.00000000       57.77519459
     0.61503592        1.12563251        0.00030537        0.98190150       60.00000000       56.82694869
     0.71740083        1.19654973        0.00039870        0.98155409       60.00000000       55.67314270
     0.83463369        1.28559476        0.00052062        0.98112941       60.00000000       54.30953151
     0.94426152        1.37463978        0.00064940        0.98070599       60.00000000       53.01728369
     1.04886336        1.46368481        0.00078577        0.98027808       60.00000000       51.78043539
     1.14986046        1.55272984        0.00093008        0.97984284       60.00000000       50.58900071
     1.24813316        1.64177486        0.00108250        0.97939885       60.00000000       49.43668302
     1.34427062        1.73081989        0.00124314        0.97894539       60.00000000       48.31948902
     1.43868944        1.81986491        0.00141206        0.97848222       60.00000000       47.23486725
     1.53169639        1.90890994        0.00158931        0.97800934       60.00000000       46.18116278
     1.62352434        1.99795497        0.00177491        0.97752690       60.00000000       45.15726812
     1.71435450        2.08699999        0.00196888        0.97703519       60.00000000       44.16239882
     1.80433083        2.17604502        0.00217123        0.97653453       60.00000000       43.19594966
     1.89356951        2.26509005        0.00238197        0.97602527       60.00000000       42.25740355
     1.98216555        2.35413507        0.00260110        0.97550781       60.00000000       41.34627518
     2.07019784        2.44318010        0.00282863        0.97498251       60.00000000       40.46207746
     2.15773232        2.53222512        0.00306457        0.97444976       60.00000000       39.60430315
     2.24482458        2.62127015        0.00330891        0.97390994       60.00000000       38.77241615
     2.33152208        2.71031518        0.00356164        0.97336339       60.00000000       37.96584904
     2.41786556        2.79936020        0.00382278        0.97281048       60.00000000       37.18400444
     2.50389010        2.88840523        0.00409233        0.97225152       60.00000000       36.42625865
     2.58962619        2.97745025        0.00437027        0.97168683       60.00000000       35.69196636
     2.67510053        3.06649528        0.00465661        0.97111671       60.00000000       34.98046589
     2.76033642        3.15554031        0.00495134        0.97054143       60.00000000       34.29108437
     2.84535452        3.24458533        0.00525447        0.96996127       60.00000000       33.62314275
     2.93017307        3.33363036        0.00556600        0.96937648       60.00000000       32.97596031
     3.01480821        3.42267538        0.00588591        0.96878728       60.00000000       32.34885869
     3.09927450        3.51172041        0.00621421        0.96819391       60.00000000       31.74116540
     3.18358478        3.60076544        0.00655090        0.96759656       60.00000000       31.15221683
     3.26775072        3.68981046        0.00689596        0.96699544       60.00000000       30.58136073
     3.35178278        3.77885549        0.00724941        0.96639073       60.00000000       30.02795826
     3.43569042        3.86790052        0.00761123        0.96578259       60.00000000       29.49138561
     3.51948215        3.95694554        0.00798142        0.96517120       60.00000000       28.97103531
     3.60316574        4.04599057        0.00835998        0.96455670       60.00000000       28.46631712
     3.68674828        4.13503559        0.00874691        0.96393924       60.00000000       27.97665875
     3.77023618        4.22408062        0.00914220        0.96331896       60.00000000       27.50150628
     3.85363536        4.31312565        0.00954584        0.96269596       60.00000000       27.04032439
     3.93695117        4.40217067        0.00995784        0.96207039       60.00000000       26.59259644
     4.02018856        4.49121570        0.01037819        0.96144234       60.00000000       26.15782439
     4.10335210        4.58026072        0.01080689        0.96081192       60.00000000       25.73552860
     4.18644597        4.66930575        0.01124393        0.96017923       60.00000000       25.32524759
     4.26947400        4.75835078        0.01168931        0.95954437       60.00000000       24.92653761
     4.35243975        4.84739580        0.01214302        0.95890741       60.00000000       24.53897231
     4.43534656        4.93644083        0.01260506        0.95826845       60.00000000       24.16214219
     4.51819746        5.02548586        0.01307543        0.95762756       60.00000000       23.79565419
     4.60099526        5.11453088        0.01355412        0.95698482       60.00000000       23.43913111
     4.68374260        5.20357591        0.01404112        0.95634028       60.00000000       23.09221111
     4.76644195        5.29262093        0.01453644        0.95569402       60.00000000       22.75454714
     4.84909559        5.38166596        0.01504006        0.95504610       60.00000000       22.42580643
     4.93170559        5.47071099        0.01555198        0.95439658       60.00000000       22.10566991
     5.01427402        5.55975601        0.01607220        0.95374550       60.00000000       21.79383170
     5.09680264        5.64880104        0.01660072        0.95309293       60.00000000       21.48999857
     5.17929328        5.73784606        0.01713752        0.95243891       60.00000000       21.19388941
     5.26174748        5.82689109        0.01768260        0.95178349       60.00000000       20.90523474
     5.34416681        5.91593612        0.01823596        0.95112671       60.00000000       20.62377621
     5.42655269        6.00498114        0.01879759        0.95046861       60.00000000       20.34926613
     5.50890643        6.09402617        0.01936748        0.94980923       60.00000000       20.08146699
     5.59122933        6.18307119        0.01994564        0.94914861       60.00000000       19.82015103
     5.67352255        6.27211622        0.02053205        0.94848678       60.00000000       19.56509982
     5.75578722        6.36116125        0.02112671        0.94782378       60.00000000       19.31610382
     5.83802436        6.45020627        0.02172961        0.94715964       60.00000000       19.07296203
     5.92023498        6.53925130        0.02234075        0.94649438       60.00000000       18.83548154
     6.00242004        6.62829633        0.02296012        0.94582804       60.00000000       18.60347724
     6.08458039        6.71734135        0.02358772        0.94516064       60.00000000       18.37677143
     6.16671687        6.80638638        0.02422354        0.94449221       60.00000000       18.15519351
     6.24883026        6.89543140        0.02486757        0.94382277       60.00000000       17.93857963
     6.33092131        6.98447643        0.02551981        0.94315234       60.00000000       17.72677243
     6.41299073        7.07352146        0.02618024        0.94248095       60.00000000       17.51962072
     6.49503918        7.16256648        0.02684888        0.94180861       60.00000000       17.31697921
     6.57706729        7.25161151        0.02752570        0.94113535       60.00000000       17.11870826
     6.65907567        7.34065653        0.02821070        0.94046119       60.00000000       16.92467360
     6.74106487        7.42970156        0.02890388        0.93978613       60.00000000       16.73474614
     6.82303545        7.51874659        0.02960523        0.93911021       60.00000000       16.54880170
     6.90498790        7.60779161        0.03031474        0.93843342       60.00000000       16.36672079
     6.98692272        7.69683664        0.03103240        0.93775580       60.00000000       16.18838843
     7.06884037        7.78588167        0.03175821        0.93707735       60.00000000       16.01369396
     7.15074130        7.87492669        0.03249216        0.93639809       60.00000000       15.84253081
     7.23262591        7.96397172        0.03323425        0.93571802       60.00000000       15.67479635
     7.31449459        8.05301674        0.03398446        0.93503716       60.00000000       15.51039174
     7.39634773        8.14206177        0.03474279        0.93435553       60.00000000       15.34922171
     7.47818568        8.23110680        0.03550923        0.93367313       60.00000000       15.19119446
     7.56000879        8.32015182        0.03628378        0.93298998       60.00000000       15.03622149
     7.64181740        8.40919685        0.03706642        0.93230608       60.00000000       14.88421746
     7.72361179        8.49824187        0.03785715        0.93162144       60.00000000       14.73510007
     7.80539225        8.58728690        0.03865597        0.93093607       60.00000000       14.58878990
     7.88715910        8.67633193        0.03946286        0.93024998       60.00000000       14.44521033
     7.96891259        8.76537695        0.04027782        0.92956318       60.00000000       14.30428740
     8.05065296        8.85442198        0.04110083        0.92887567       60.00000000       14.16594971
     8.13238047        8.94346700        0.04193189        0.92818746       60.00000000       14.03012829
     8.21409536        9.03251203        0.04277100        0.92749857       60.00000000       13.89675656
     8.29579783        9.12155706        0.04361814        0.92680898       60.00000000       13.76577015
     8.37748809        9.21060208        0.04447331        0.92611872       60.00000000       13.63710689
     8.45916637        9.29964711        0.04533650        0.92542778       60.00000000       13.51070666
     8.54083284        9.38869214        0.04620769        0.92473618       60.00000000       13.38651135
     8.62248768        9.47773716        0.04708689        0.92404391       60.00000000       13.26446477
     8.70413109        9.56678219        0.04797408        0.92335098       60.00000000       13.14451255
     8.78576319        9.65582721        0.04886925        0.92265739       60.00000000       13.02660210
     8.86738420        9.74487224        0.04977240        0.92196315       60.00000000       12.91068252
     8.94899422        9.83391727        0.05068352        0.92126827       60.00000000       12.79670456
     9.03059343        9.92296229        0.05160259        0.92057274       60.00000000       12.68462051
     9.11218194       10.01200732        0.05252961        0.91987657       60.00000000       12.57438421
     9.19375990       10.10105234        0.05346458        0.91917976       60.00000000       12.46595090
     9.27532743       10.19009737        0.05440747        0.91848231       60.00000000       12.35927726
     9.35688465       10.27914240        0.05535829        0.91778424       60.00000000       12.25432130
     9.43843167       10.36818742        0.05631702        0.91708553       60.00000000       12.15104232
     9.51996860       10.45723245        0.05728365        0.91638619       60.00000000       12.04940087
     9.60149555       10.54627747        0.05825817        0.91568623       60.00000000       11.94935869
     9.68301262       10.63532250        0.05924058        0.91498564       60.00000000       11.85087869
     9.76451988       10.72436753        0.06023087        0.91428443       60.00000000       11.75392489
     9.84601745       10.81341255        0.06122902        0.91358260       60.00000000       11.65846236
     9.92750539       10.90245758        0.06223503        0.91288014       60.00000000       11.56445725
    10.00898381       10.99150261        0.06324888        0.91217707       60.00000000       11.47187667
    10.09045275       11.08054763        0.06427058        0.91147338       60.00000000       11.38068869
    10.17191231       11.16959266        0.06530009        0.91076907       60.00000000       11.29086234
    10.25336254       11.25863768        0.06633743        0.91006414       60.00000000       11.20236751
    10.33480352       11.34768271        0.06738257        0.90935860       60.00000000       11.11517497
    10.41623532       11.43672774        0.06843551        0.90865244       60.00000000       11.02925632
    10.49765796       11.52577276        0.06949623        0.90794566       60.00000000       10.94458397
    10.57907154       11.61481779        0.07056473        0.90723827       60.00000000       10.86113110
    10.66047608       11.70386281        0.07164100        0.90653026       60.00000000       10.77887163
    10.74187164       11.79290784        0.07272502        0.90582163       60.00000000       10.69778023
    10.82325829       11.88195287        0.07381678        0.90511239       60.00000000       10.61783225
    10.90463603       11.97099789        0.07491628        0.90440253       60.00000000       10.53900373
    10.98600492       12.06004292        0.07602351        0.90369206       60.00000000       10.46127134
    11.06736502       12.14908795        0.07713844        0.90298096       60.00000000       10.38461241
    11.14871634       12.23813297        0.07826108        0.90226925       60.00000000       10.30900487
    11.23005891       12.32717800        0.07939142        0.90155691       60.00000000       10.23442723
    11.31139278       12.41622302        0.08052943        0.90084396       60.00000000       10.16085860
    11.39271797       12.50526805        0.08167511        0.90013038       60.00000000       10.08827861
    11.47403451       12.59431308        0.08282845        0.89941619       60.00000000       10.01666745
    11.55534241       12.68335810        0.08398944        0.89870137       60.00000000        9.94600581
    11.63664172       12.77240313        0.08515806        0.89798592       60.00000000        9.87627490
    11.71793244       12.86144815        0.08633431        0.89726985       60.00000000        9.80745641
    11.79921459       12.95049318        0.08751817        0.89655314       60.00000000        9.73953248
    11.88048819       13.03953821        0.08870963        0.89583582       60.00000000        9.67248574
    11.96175326       13.12858323        0.08990869        0.89511785       60.00000000        9.60629922
    12.04300982       13.21762826        0.09111532        0.89439926       60.00000000        9.54095643
    12.12425786       13.30667328        0.09232952        0.89368004       60.00000000        9.47644125
    12.20549740       13.39571831        0.09355128        0.89296017       60.00000000        9.41273798
    12.28672845       13.48476334        0.09478057        0.89223967       60.00000000        9.34983130
    12.36795103       13.57380836        0.09601741        0.89151853       60.00000000        9.28770628
    12.44916512       13.66285339        0.09726176        0.89079675       60.00000000        9.22634836
    12.53037075       13.75189842        0.09851362        0.89007433       60.00000000        9.16574331
    12.61156790       13.84094344        0.09977297        0.88935126       60.00000000        9.10587726
    12.69275658       13.92998847        0.10103981        0.88862754       60.00000000        9.04673669
    12.77393680       14.01903349        0.10231412        0.88790317       60.00000000        8.98830838
    12.85510854       14.10807852        0.10359589        0.88717815       60.00000000        8.93057943
    12.93627182       14.19712355        0.10488510        0.88645248       60.00000000        8.87353725
    13.01742663       14.28616857        0.10618175        0.88572614       60.00000000        8.81716955
    13.09857295       14.37521360        0.10748583        0.88499915       60.00000000        8.76146433
    13.17971078       14.46425862        0.10879731        0.88427150       60.00000000        8.70640986
    13.26084013       14.55330365        0.11011618        0.88354318       60.00000000        8.65199468
    13.34196097       14.64234868        0.11144244        0.88281420       60.00000000        8.59820760
    13.42307330       14.73139370        0.11277608        0.88208455       60.00000000        8.54503770
    13.50417711       14.82043873        0.11411706        0.88135422       60.00000000        8.49247429
    13.58527238       14.90948376        0.11546540        0.88062322       60.00000000        8.44050693
    13.66635912       14.99852878        0.11682106        0.87989154       60.00000000        8.38912540
    13.74743730       15.08757381        0.11818405        0.87915918       60.00000000        8.33831975
    13.82850690       15.17661883        0.11955434        0.87842614       60.00000000        8.28808021
    13.90956792       15.26566386        0.12093192        0.87769241       60.00000000        8.23839725
    13.99062034       15.35470889        0.12231679        0.87695799       60.00000000        8.18926153
    14.07166414       15.44375391        0.12370891        0.87622289       60.00000000        8.14066395
    14.15269931       15.53279894        0.12510829        0.87548708       60.00000000        8.09259558
    14.23372582       15.62184396        0.12651491        0.87475058       60.00000000        8.04504769
    14.31474365       15.71088899        0.12792876        0.87401337       60.00000000        7.99801174
    14.39575279       15.79993402        0.12934981        0.87327546       60.00000000        7.95147939
    14.47675322       15.88897904        0.13077807        0.87253685       60.00000000        7.90544244
    14.55774491       15.97802407        0.13221351        0.87179752       60.00000000        7.85989291
    14.63872784       16.06706909        0.13365611        0.87105748       60.00000000        7.81482297
    14.71970199       16.15611412        0.13510588        0.87031672       60.00000000        7.77022493
    14.80066733       16.24515915        0.13656278        0.86957524       60.00000000        7.72609131
    14.88162384       16.33420417        0.13802682        0.86883303       60.00000000        7.68241475
    14.96257150       16.42324920        0.13949797        0.86809010       60.00000000        7.63918806
    15.04351027       16.51229423        0.14097621        0.86734644       60.00000000        7.59640419
    15.12444014       16.60133925        0.14246155        0.86660204       60.00000000        7.55405624
    15.20536107       16.69038428        0.14395395        0.86585691       60.00000000        7.51213745
    15.28627304       16.77942930        0.14545341        0.86511103       60.00000000        7.47064119
    15.36717602       16.86847433        0.14695992        0.86436441       60.00000000        7.42956098
    15.44806998       16.95751936        0.14847345        0.86361704       60.00000000        7.38889047
