#  Theta paroi en deg Angle Choc en deg       Kp           Inverse Mach       Mach amont       Mach aval
     0.00000000       36.78417359        0.00000000        0.40119760        1.67000000
     2.13637736       36.78577006        0.00895141        0.39702574        1.67000000        1.66994206
     2.53905380       36.78800381        0.01200839        0.39560234        1.67000000        1.66986100
     2.98837648       36.79214939        0.01581311        0.39383164        1.67000000        1.66971059
     3.48133664       36.79948135        0.02043016        0.39168407        1.67000000        1.66944461
     3.99398093       36.81127424        0.02568931        0.38923928        1.67000000        1.66901697
     4.51157678       36.82880261        0.03144313        0.38656611        1.67000000        1.66838170
     5.02756327       36.85334102        0.03759833        0.38370804        1.67000000        1.66749308
     5.53975509       36.88616402        0.04410212        0.38068962        1.67000000        1.66630572
     6.04805809       36.92854615        0.05092795        0.37752306        1.67000000        1.66477475
     6.55333547       36.98176198        0.05806621        0.37421264        1.67000000        1.66285586
     6.97064750       37.03497780        0.06421894        0.37135987        1.67000000        1.66094080
     7.33076742       37.08819363        0.06971080        0.36881377        1.67000000        1.65902952
     7.65034612       37.14140946        0.07472318        0.36649001        1.67000000        1.65712200
     7.93949682       37.19462528        0.07936901        0.36433610        1.67000000        1.65521822
     8.20486076       37.24784111        0.08372399        0.36231687        1.67000000        1.65331816
     8.45105302       37.30105694        0.08784164        0.36040744        1.67000000        1.65142179
     8.68142149       37.35427276        0.09176139        0.35858949        1.67000000        1.64952909
     8.89847825       37.40748859        0.09551319        0.35684912        1.67000000        1.64764003
     9.10416050       37.46070442        0.09912041        0.35517547        1.67000000        1.64575460
     9.29999601       37.51392024        0.10260168        0.35355987        1.67000000        1.64387276
     9.48721284       37.56713607        0.10597211        0.35199530        1.67000000        1.64199450
     9.66681400       37.62035189        0.10924415        0.35047599        1.67000000        1.64011980
     9.83963023       37.67356772        0.11242819        0.34899710        1.67000000        1.63824862
    10.00635796       37.72678355        0.11553301        0.34755455        1.67000000        1.63638096
    10.16758721       37.77999937        0.11856609        0.34614487        1.67000000        1.63451678
    10.32382265       37.83321520        0.12153386        0.34476507        1.67000000        1.63265607
    10.47549953       37.88643103        0.12444191        0.34341253        1.67000000        1.63079881
    10.62299612       37.93964685        0.12729512        0.34208500        1.67000000        1.62894496
    10.76664334       37.99286268        0.13009778        0.34078048        1.67000000        1.62709452
    10.90673259       38.04607851        0.13285368        0.33949720        1.67000000        1.62524747
    11.04352181       38.09929433        0.13556619        0.33823359        1.67000000        1.62340377
    11.17724057       38.15251016        0.13823833        0.33698824        1.67000000        1.62156341
    11.30809413       38.20572599        0.14087280        0.33575990        1.67000000        1.61972637
    11.43626682       38.25894181        0.14347204        0.33454742        1.67000000        1.61789263
    11.56192486       38.31215764        0.14603826        0.33334979        1.67000000        1.61606217
    11.68521868       38.36537346        0.14857345        0.33216605        1.67000000        1.61423498
    11.80628491       38.41858929        0.15107944        0.33099537        1.67000000        1.61241102
    11.92524802       38.47180512        0.15355789        0.32983695        1.67000000        1.61059028
    12.04222178       38.52502094        0.15601033        0.32869009        1.67000000        1.60877274
    12.15731047       38.57823677        0.15843817        0.32755414        1.67000000        1.60695839
    12.27060991       38.63145260        0.16084269        0.32642847        1.67000000        1.60514720
    12.38220838       38.68466842        0.16322508        0.32531254        1.67000000        1.60333915
    12.49218740       38.73788425        0.16558646        0.32420582        1.67000000        1.60153423
    12.60062241       38.79110008        0.16792784        0.32310783        1.67000000        1.59973242
    12.70758339       38.84431590        0.17025017        0.32201814        1.67000000        1.59793369
    12.81313538       38.89753173        0.17255433        0.32093631        1.67000000        1.59613804
    12.91733890       38.95074756        0.17484116        0.31986196        1.67000000        1.59434544
    13.02025043       39.00396338        0.17711142        0.31879472        1.67000000        1.59255588
    13.12192274       39.05717921        0.17936582        0.31773426        1.67000000        1.59076933
    13.22240519       39.11039503        0.18160506        0.31668026        1.67000000        1.58898578
    13.32174409       39.16361086        0.18382976        0.31563241        1.67000000        1.58720522
    13.41998286       39.21682669        0.18604051        0.31459043        1.67000000        1.58542762
    13.51716233       39.27004251        0.18823787        0.31355406        1.67000000        1.58365297
    13.61332096       39.32325834        0.19042238        0.31252303        1.67000000        1.58188125
    13.70849496       39.37647417        0.19259453        0.31149713        1.67000000        1.58011245
    13.80271851       39.42968999        0.19475479        0.31047611        1.67000000        1.57834655
    13.89602392       39.48290582        0.19690360        0.30945977        1.67000000        1.57658352
    13.98844173       39.53612165        0.19904139        0.30844791        1.67000000        1.57482337
    14.08000085       39.58933747        0.20116854        0.30744033        1.67000000        1.57306606
    14.17072870       39.64255330        0.20328545        0.30643685        1.67000000        1.57131158
    14.26065130       39.69576913        0.20539246        0.30543730        1.67000000        1.56955993
    14.34979334       39.74898495        0.20748992        0.30444151        1.67000000        1.56781107
    14.43817831       39.80220078        0.20957815        0.30344934        1.67000000        1.56606500
    14.52582855       39.85541660        0.21165746        0.30246062        1.67000000        1.56432170
    14.61276533       39.90863243        0.21372814        0.30147521        1.67000000        1.56258116
    14.69900893       39.96184826        0.21579047        0.30049298        1.67000000        1.56084336
    14.78457871       40.01506408        0.21784471        0.29951380        1.67000000        1.55910828
    14.86949310       40.06827991        0.21989113        0.29853755        1.67000000        1.55737591
    14.95376977       40.12149574        0.22192995        0.29756409        1.67000000        1.55564624
    15.03742556       40.17471156        0.22396143        0.29659333        1.67000000        1.55391925
    15.12047662       40.22792739        0.22598576        0.29562514        1.67000000        1.55219492
    15.20293839       40.28114322        0.22800318        0.29465943        1.67000000        1.55047324
    15.28482566       40.33435904        0.23001388        0.29369609        1.67000000        1.54875421
    15.36615261       40.38757487        0.23201805        0.29273502        1.67000000        1.54703779
    15.44693285       40.44079069        0.23401589        0.29177613        1.67000000        1.54532398
    15.52717944       40.49400652        0.23600757        0.29081934        1.67000000        1.54361277
    15.60690492       40.54722235        0.23799326        0.28986455        1.67000000        1.54190414
    15.68612133       40.60043817        0.23997313        0.28891168        1.67000000        1.54019808
    15.76484025       40.65365400        0.24194734        0.28796065        1.67000000        1.53849457
    15.84307282       40.70686983        0.24391604        0.28701138        1.67000000        1.53679360
    15.92082978       40.76008565        0.24587937        0.28606381        1.67000000        1.53509516
    15.99812144       40.81330148        0.24783747        0.28511784        1.67000000        1.53339923
    16.07495775       40.86651731        0.24979048        0.28417343        1.67000000        1.53170580
    16.15134830       40.91973313        0.25173854        0.28323049        1.67000000        1.53001486
    16.22730233       40.97294896        0.25368176        0.28228897        1.67000000        1.52832640
    16.30282876       41.02616479        0.25562027        0.28134879        1.67000000        1.52664040
    16.37793621       41.07938061        0.25755418        0.28040991        1.67000000        1.52495684
    16.45263296       41.13259644        0.25948361        0.27947225        1.67000000        1.52327572
    16.52692707       41.18581226        0.26140866        0.27853577        1.67000000        1.52159703
    16.60082629       41.23902809        0.26332944        0.27760040        1.67000000        1.51992075
    16.67433812       41.29224392        0.26524605        0.27666610        1.67000000        1.51824687
    16.74746980       41.34545974        0.26715858        0.27573281        1.67000000        1.51657537
    16.82022837       41.39867557        0.26906714        0.27480047        1.67000000        1.51490625
    16.89262061       41.45189140        0.27097180        0.27386905        1.67000000        1.51323949
    16.96465310       41.50510722        0.27287267        0.27293850        1.67000000        1.51157509
    17.03633219       41.55832305        0.27476982        0.27200876        1.67000000        1.50991302
    17.10766409       41.61153888        0.27666334        0.27107979        1.67000000        1.50825329
    17.17865474       41.66475470        0.27855330        0.27015154        1.67000000        1.50659587
    17.24930997       41.71797053        0.28043978        0.26922399        1.67000000        1.50494075
    17.31963539       41.77118636        0.28232286        0.26829708        1.67000000        1.50328793
    17.38963645       41.82440218        0.28420261        0.26737077        1.67000000        1.50163739
    17.45931845       41.87761801        0.28607910        0.26644502        1.67000000        1.49998912
    17.52868653       41.93083383        0.28795239        0.26551980        1.67000000        1.49834311
    17.59774568       41.98404966        0.28982255        0.26459507        1.67000000        1.49669935
    17.66650075       42.03726549        0.29168965        0.26367079        1.67000000        1.49505783
    17.73495644       42.09048131        0.29355374        0.26274692        1.67000000        1.49341854
    17.80311732       42.14369714        0.29541489        0.26182344        1.67000000        1.49178146
    17.87098785       42.19691297        0.29727314        0.26090030        1.67000000        1.49014659
    17.93857236       42.25012879        0.29912857        0.25997748        1.67000000        1.48851392
    18.00587504       42.30334462        0.30098122        0.25905494        1.67000000        1.48688343
    18.07289999       42.35656045        0.30283114        0.25813266        1.67000000        1.48525511
    18.13965119       42.40977627        0.30467839        0.25721059        1.67000000        1.48362896
    18.20613252       42.46299210        0.30652302        0.25628871        1.67000000        1.48200497
    18.27234775       42.51620793        0.30836507        0.25536700        1.67000000        1.48038312
    18.33830054       42.56942375        0.31020459        0.25444542        1.67000000        1.47876340
    18.40399449       42.62263958        0.31204162        0.25352394        1.67000000        1.47714581
    18.46943306       42.67585540        0.31387621        0.25260253        1.67000000        1.47553034
    18.53461967       42.72907123        0.31570840        0.25168118        1.67000000        1.47391697
    18.59955761       42.78228706        0.31753824        0.25075985        1.67000000        1.47230569
    18.66425012       42.83550288        0.31936576        0.24983852        1.67000000        1.47069650
    18.72870033       42.88871871        0.32119100        0.24891716        1.67000000        1.46908939
    18.79291132       42.94193454        0.32301401        0.24799575        1.67000000        1.46748434
    18.85688608       42.99515036        0.32483481        0.24707427        1.67000000        1.46588135
    18.92062752       43.04836619        0.32665344        0.24615268        1.67000000        1.46428041
    18.98413850       43.10158202        0.32846994        0.24523097        1.67000000        1.46268151
    19.04742178       43.15479784        0.33028435        0.24430912        1.67000000        1.46108464
    19.11048009       43.20801367        0.33209668        0.24338709        1.67000000        1.45948978
    19.17331607       43.26122949        0.33390699        0.24246488        1.67000000        1.45789695
    19.23593231       43.31444532        0.33571529        0.24154245        1.67000000        1.45630611
    19.29833132       43.36766115        0.33752162        0.24061979        1.67000000        1.45471727
    19.36051559       43.42087697        0.33932601        0.23969688        1.67000000        1.45313042
    19.42248751       43.47409280        0.34112849        0.23877369        1.67000000        1.45154554
    19.48424943       43.52730863        0.34292908        0.23785021        1.67000000        1.44996263
    19.54580367       43.58052445        0.34472781        0.23692642        1.67000000        1.44838168
    19.60715247       43.63374028        0.34652470        0.23600229        1.67000000        1.44680268
    19.66829802       43.68695611        0.34831980        0.23507781        1.67000000        1.44522563
    19.72924248       43.74017193        0.35011311        0.23415296        1.67000000        1.44365051
    19.78998794       43.79338776        0.35190466        0.23322772        1.67000000        1.44207731
    19.85053645       43.84660359        0.35369448        0.23230207        1.67000000        1.44050604
    19.91089004       43.89981941        0.35548258        0.23137600        1.67000000        1.43893668
    19.97105065       43.95303524        0.35726900        0.23044949        1.67000000        1.43736921
    20.03102023       44.00625106        0.35905375        0.22952252        1.67000000        1.43580365
    20.09080064       44.05946689        0.36083686        0.22859507        1.67000000        1.43423997
    20.15039372       44.11268272        0.36261834        0.22766713        1.67000000        1.43267817
    20.20980128       44.16589854        0.36439821        0.22673867        1.67000000        1.43111824
    20.26902509       44.21911437        0.36617650        0.22580970        1.67000000        1.42956017
    20.32806686       44.27233020        0.36795323        0.22488018        1.67000000        1.42800396
    20.38692829       44.32554602        0.36972840        0.22395010        1.67000000        1.42644960
    20.44561103       44.37876185        0.37150205        0.22301945        1.67000000        1.42489708
    20.50411670       44.43197768        0.37327418        0.22208822        1.67000000        1.42334639
    20.56244690       44.48519350        0.37504481        0.22115638        1.67000000        1.42179753
    20.62060317       44.53840933        0.37681397        0.22022392        1.67000000        1.42025049
    20.67858703       44.59162516        0.37858166        0.21929083        1.67000000        1.41870526
    20.73639999       44.64484098        0.38034791        0.21835710        1.67000000        1.41716183
    20.79404348       44.69805681        0.38211272        0.21742270        1.67000000        1.41562020
    20.85151897       44.75127263        0.38387612        0.21648763        1.67000000        1.41408036
    20.90882784       44.80448846        0.38563812        0.21555187        1.67000000        1.41254231
    20.96597147       44.85770429        0.38739872        0.21461541        1.67000000        1.41100603
    21.02295120       44.91092011        0.38915795        0.21367824        1.67000000        1.40947152
    21.07976837       44.96413594        0.39091582        0.21274033        1.67000000        1.40793878
    21.13642425       45.01735177        0.39267234        0.21180168        1.67000000        1.40640779
    21.19292014       45.07056759        0.39442752        0.21086228        1.67000000        1.40487855
    21.24925726       45.12378342        0.39618138        0.20992211        1.67000000        1.40335105
    21.30543684       45.17699925        0.39793392        0.20898116        1.67000000        1.40182529
    21.36146008       45.23021507        0.39968517        0.20803942        1.67000000        1.40030126
    21.41732815       45.28343090        0.40143512        0.20709687        1.67000000        1.39877895
    21.47304220       45.33664673        0.40318380        0.20615350        1.67000000        1.39725836
    21.52860336       45.38986255        0.40493121        0.20520931        1.67000000        1.39573948
    21.58401274       45.44307838        0.40667736        0.20426427        1.67000000        1.39422230
    21.63927142       45.49629420        0.40842227        0.20331838        1.67000000        1.39270683
    21.69438049       45.54951003        0.41016593        0.20237163        1.67000000        1.39119304
    21.74934096       45.60272586        0.41190837        0.20142400        1.67000000        1.38968094
    21.80415388       45.65594168        0.41364959        0.20047548        1.67000000        1.38817052
    21.85882026       45.70915751        0.41538959        0.19952606        1.67000000        1.38666177
    21.91334106       45.76237334        0.41712840        0.19857573        1.67000000        1.38515469
    21.96771729       45.81558916        0.41886601        0.19762449        1.67000000        1.38364927
    22.02194987       45.86880499        0.42060244        0.19667230        1.67000000        1.38214551
    22.07603974       45.92202082        0.42233769        0.19571918        1.67000000        1.38064340
    22.12998783       45.97523664        0.42407177        0.19476510        1.67000000        1.37914293
    22.18379503       46.02845247        0.42580469        0.19381006        1.67000000        1.37764410
    22.23746222       46.08166829        0.42753645        0.19285404        1.67000000        1.37614691
    22.29099027       46.13488412        0.42926706        0.19189704        1.67000000        1.37465134
    22.34438004       46.18809995        0.43099654        0.19093904        1.67000000        1.37315739
    22.39763235       46.24131577        0.43272488        0.18998004        1.67000000        1.37166506
    22.45074803       46.29453160        0.43445209        0.18902002        1.67000000        1.37017434
    22.50372787       46.34774743        0.43617818        0.18805897        1.67000000        1.36868523
