#  Theta paroi en deg Angle Choc en deg       Kp           Inverse Mach       Mach amont       Mach aval
     0.00000000       34.84990458        0.00000000        0.42857143        1.75000000
     2.10607565       34.85155908        0.00855399        0.42463602        1.75000000        1.74993631
     2.50990752       34.85387402        0.01152065        0.42327364        1.75000000        1.74984722
     2.95760282       34.85817028        0.01519084        0.42158987        1.75000000        1.74968188
     3.44721522       34.86576874        0.01962968        0.41955586        1.75000000        1.74938953
     3.95560129       34.87799028        0.02467611        0.41724648        1.75000000        1.74891950
     4.46859000       34.89615576        0.03019154        0.41472598        1.75000000        1.74822130
     4.97997126       34.92158609        0.03608942        0.41203450        1.75000000        1.74724472
     5.48778621       34.95560212        0.04232200        0.40919427        1.75000000        1.74593998
     5.99209966       34.99952475        0.04886661        0.40621591        1.75000000        1.74425787
     6.49389670       35.05467484        0.05571680        0.40310259        1.75000000        1.74214994
     6.90878310       35.10982494        0.06162758        0.40041928        1.75000000        1.74004660
     7.26718443       35.16497503        0.06690926        0.39802375        1.75000000        1.73794782
     7.58555703       35.22012513        0.07173503        0.39583665        1.75000000        1.73585357
     7.87389301       35.27527522        0.07621263        0.39380861        1.75000000        1.73376380
     8.13875260       35.33042532        0.08041425        0.39190658        1.75000000        1.73167850
     8.38469373       35.38557541        0.08439091        0.39010722        1.75000000        1.72959762
     8.61502231       35.44072551        0.08818013        0.38839333        1.75000000        1.72752114
     8.83221858       35.49587560        0.09181043        0.38675187        1.75000000        1.72544902
     9.03819491       35.55102570        0.09530407        0.38517265        1.75000000        1.72338124
     9.23445944       35.60617579        0.09867876        0.38364756        1.75000000        1.72131777
     9.42222420       35.66132589        0.10194886        0.38217003        1.75000000        1.71925856
     9.60247911       35.71647599        0.10512621        0.38073463        1.75000000        1.71720360
     9.77604400       35.77162608        0.10822068        0.37933686        1.75000000        1.71515286
     9.94360604       35.82677618        0.11124061        0.37797288        1.75000000        1.71310630
    10.10574743       35.88192627        0.11419309        0.37663945        1.75000000        1.71106389
    10.26296608       35.93707637        0.11708424        0.37533377        1.75000000        1.70902561
    10.41569142       35.99222646        0.11991936        0.37405341        1.75000000        1.70699143
    10.56429658       36.04737656        0.12270308        0.37279624        1.75000000        1.70496132
    10.70910805       36.10252665        0.12543945        0.37156040        1.75000000        1.70293524
    10.85041322       36.15767675        0.12813208        0.37034425        1.75000000        1.70091318
    10.98846654       36.21282684        0.13078417        0.36914630        1.75000000        1.69889511
    11.12349443       36.26797694        0.13339856        0.36796526        1.75000000        1.69688100
    11.25569934       36.32312704        0.13597783        0.36679994        1.75000000        1.69487082
    11.38526304       36.37827713        0.13852427        0.36564928        1.75000000        1.69286454
    11.51234948       36.43342723        0.14103997        0.36451232        1.75000000        1.69086214
    11.63710700       36.48857732        0.14352683        0.36338819        1.75000000        1.68886359
    11.75967029       36.54372742        0.14598658        0.36227609        1.75000000        1.68686887
    11.88016213       36.59887751        0.14842078        0.36117529        1.75000000        1.68487795
    11.99869468       36.65402761        0.15083089        0.36008514        1.75000000        1.68289081
    12.11537075       36.70917770        0.15321822        0.35900500        1.75000000        1.68090741
    12.23028483       36.76432780        0.15558399        0.35793433        1.75000000        1.67892774
    12.34352394       36.81947789        0.15792934        0.35687260        1.75000000        1.67695178
    12.45516847       36.87462799        0.16025529        0.35581932        1.75000000        1.67497948
    12.56529276       36.92977809        0.16256283        0.35477405        1.75000000        1.67301084
    12.67396581       36.98492818        0.16485284        0.35373636        1.75000000        1.67104583
    12.78125174       37.04007828        0.16712616        0.35270588        1.75000000        1.66908441
    12.88721019       37.09522837        0.16938357        0.35168223        1.75000000        1.66712658
    12.99189687       37.15037847        0.17162579        0.35066508        1.75000000        1.66517231
    13.09536374       37.20552856        0.17385349        0.34965411        1.75000000        1.66322157
    13.19765949       37.26067866        0.17606733        0.34864902        1.75000000        1.66127434
    13.29882974       37.31582875        0.17826789        0.34764954        1.75000000        1.65933059
    13.39891730       37.37097885        0.18045574        0.34665538        1.75000000        1.65739032
    13.49796241       37.42612894        0.18263139        0.34566632        1.75000000        1.65545348
    13.59600295       37.48127904        0.18479535        0.34468211        1.75000000        1.65352007
    13.69307463       37.53642913        0.18694809        0.34370254        1.75000000        1.65159006
    13.78921112       37.59157923        0.18909004        0.34272739        1.75000000        1.64966342
    13.88444426       37.64672933        0.19122163        0.34175646        1.75000000        1.64774014
    13.97880413       37.70187942        0.19334324        0.34078957        1.75000000        1.64582019
    14.07231926       37.75702952        0.19545525        0.33982654        1.75000000        1.64390356
    14.16501663       37.81217961        0.19755802        0.33886719        1.75000000        1.64199022
    14.25692189       37.86732971        0.19965189        0.33791138        1.75000000        1.64008015
    14.34805936       37.92247980        0.20173716        0.33695893        1.75000000        1.63817334
    14.43845219       37.97762990        0.20381415        0.33600972        1.75000000        1.63626975
    14.52812239       38.03277999        0.20588313        0.33506359        1.75000000        1.63436938
    14.61709092       38.08793009        0.20794440        0.33412041        1.75000000        1.63247220
    14.70537776       38.14308018        0.20999820        0.33318007        1.75000000        1.63057819
    14.79300196       38.19823028        0.21204479        0.33224242        1.75000000        1.62868733
    14.87998172       38.25338038        0.21408441        0.33130737        1.75000000        1.62679961
    14.96633441       38.30853047        0.21611727        0.33037480        1.75000000        1.62491500
    15.05207664       38.36368057        0.21814360        0.32944459        1.75000000        1.62303348
    15.13722431       38.41883066        0.22016361        0.32851666        1.75000000        1.62115504
    15.22179262       38.47398076        0.22217750        0.32759089        1.75000000        1.61927966
    15.30579617       38.52913085        0.22418544        0.32666720        1.75000000        1.61740731
    15.38924889       38.58428095        0.22618763        0.32574549        1.75000000        1.61553799
    15.47216423       38.63943104        0.22818424        0.32482568        1.75000000        1.61367166
    15.55455501       38.69458114        0.23017543        0.32390768        1.75000000        1.61180833
    15.63643360       38.74973123        0.23216137        0.32299142        1.75000000        1.60994795
    15.71781186       38.80488133        0.23414221        0.32207680        1.75000000        1.60809053
    15.79870121       38.86003142        0.23611809        0.32116377        1.75000000        1.60623604
    15.87911261       38.91518152        0.23808917        0.32025225        1.75000000        1.60438446
    15.95905663       38.97033162        0.24005556        0.31934216        1.75000000        1.60253578
    16.03854343       39.02548171        0.24201741        0.31843343        1.75000000        1.60068998
    16.11758282       39.08063181        0.24397484        0.31752602        1.75000000        1.59884704
    16.19618424       39.13578190        0.24592796        0.31661984        1.75000000        1.59700695
    16.27435679       39.19093200        0.24787691        0.31571484        1.75000000        1.59516969
    16.35210925       39.24608209        0.24982178        0.31481097        1.75000000        1.59333524
    16.42945011       39.30123219        0.25176269        0.31390815        1.75000000        1.59150359
    16.50638754       39.35638228        0.25369974        0.31300635        1.75000000        1.58967472
    16.58292946       39.41153238        0.25563304        0.31210550        1.75000000        1.58784861
    16.65908351       39.46668247        0.25756267        0.31120555        1.75000000        1.58602526
    16.73485707       39.52183257        0.25948873        0.31030645        1.75000000        1.58420463
    16.81025729       39.57698267        0.26141131        0.30940815        1.75000000        1.58238673
    16.88529108       39.63213276        0.26333050        0.30851061        1.75000000        1.58057153
    16.95996513       39.68728286        0.26524638        0.30761378        1.75000000        1.57875901
    17.03428592       39.74243295        0.26715903        0.30671762        1.75000000        1.57694917
    17.10825971       39.79758305        0.26906853        0.30582207        1.75000000        1.57514199
    17.18189259       39.85273314        0.27097496        0.30492711        1.75000000        1.57333745
    17.25519045       39.90788324        0.27287839        0.30403268        1.75000000        1.57153553
    17.32815899       39.96303333        0.27477888        0.30313874        1.75000000        1.56973623
    17.40080376       40.01818343        0.27667652        0.30224527        1.75000000        1.56793953
    17.47313013       40.07333352        0.27857136        0.30135222        1.75000000        1.56614541
    17.54514331       40.12848362        0.28046346        0.30045954        1.75000000        1.56435387
    17.61684837       40.18363371        0.28235290        0.29956722        1.75000000        1.56256488
    17.68825021       40.23878381        0.28423972        0.29867521        1.75000000        1.56077843
    17.75935361       40.29393391        0.28612400        0.29778347        1.75000000        1.55899451
    17.83016321       40.34908400        0.28800577        0.29689198        1.75000000        1.55721311
    17.90068352       40.40423410        0.28988510        0.29600070        1.75000000        1.55543421
    17.97091892       40.45938419        0.29176205        0.29510960        1.75000000        1.55365780
    18.04087365       40.51453429        0.29363665        0.29421865        1.75000000        1.55188386
    18.11055188       40.56968438        0.29550896        0.29332782        1.75000000        1.55011238
    18.17995762       40.62483448        0.29737903        0.29243707        1.75000000        1.54834336
    18.24909480       40.67998457        0.29924691        0.29154639        1.75000000        1.54657676
    18.31796724       40.73513467        0.30111264        0.29065573        1.75000000        1.54481260
    18.38657865       40.79028476        0.30297625        0.28976508        1.75000000        1.54305084
    18.45493265       40.84543486        0.30483781        0.28887441        1.75000000        1.54129148
    18.52303276       40.90058496        0.30669734        0.28798368        1.75000000        1.53953450
    18.59088241       40.95573505        0.30855488        0.28709288        1.75000000        1.53777990
    18.65848496       41.01088515        0.31041048        0.28620198        1.75000000        1.53602766
    18.72584366       41.06603524        0.31226417        0.28531095        1.75000000        1.53427776
    18.79296168       41.12118534        0.31411599        0.28441976        1.75000000        1.53253021
    18.85984214       41.17633543        0.31596598        0.28352841        1.75000000        1.53078497
    18.92648803       41.23148553        0.31781416        0.28263685        1.75000000        1.52904205
    18.99290233       41.28663562        0.31966057        0.28174508        1.75000000        1.52730144
    19.05908789       41.34178572        0.32150524        0.28085305        1.75000000        1.52556311
    19.12504752       41.39693581        0.32334821        0.27996077        1.75000000        1.52382705
    19.19078397       41.45208591        0.32518951        0.27906819        1.75000000        1.52209327
    19.25629989       41.50723600        0.32702915        0.27817531        1.75000000        1.52036174
    19.32159792       41.56238610        0.32886718        0.27728209        1.75000000        1.51863245
    19.38668058       41.61753620        0.33070362        0.27638853        1.75000000        1.51690540
    19.45155036       41.67268629        0.33253850        0.27549459        1.75000000        1.51518057
    19.51620971       41.72783639        0.33437184        0.27460027        1.75000000        1.51345795
    19.58066098       41.78298648        0.33620367        0.27370553        1.75000000        1.51173753
    19.64490651       41.83813658        0.33803401        0.27281036        1.75000000        1.51001930
    19.70894855       41.89328667        0.33986289        0.27191475        1.75000000        1.50830325
    19.77278932       41.94843677        0.34169033        0.27101867        1.75000000        1.50658937
    19.83643098       42.00358686        0.34351635        0.27012211        1.75000000        1.50487764
    19.89987566       42.05873696        0.34534098        0.26922504        1.75000000        1.50316807
    19.96312543       42.11388705        0.34716424        0.26832745        1.75000000        1.50146063
    20.02618230       42.16903715        0.34898614        0.26742933        1.75000000        1.49975532
    20.08904826       42.22418725        0.35080672        0.26653065        1.75000000        1.49805212
    20.15172524       42.27933734        0.35262597        0.26563140        1.75000000        1.49635103
    20.21421515       42.33448744        0.35444394        0.26473156        1.75000000        1.49465204
    20.27651982       42.38963753        0.35626063        0.26383111        1.75000000        1.49295514
    20.33864109       42.44478763        0.35807606        0.26293005        1.75000000        1.49126032
    20.40058072       42.49993772        0.35989025        0.26202835        1.75000000        1.48956756
    20.46234045       42.55508782        0.36170322        0.26112600        1.75000000        1.48787687
    20.52392198       42.61023791        0.36351498        0.26022298        1.75000000        1.48618822
    20.58532698       42.66538801        0.36532556        0.25931928        1.75000000        1.48450161
    20.64655709       42.72053810        0.36713495        0.25841489        1.75000000        1.48281704
    20.70761389       42.77568820        0.36894319        0.25750978        1.75000000        1.48113448
    20.76849896       42.83083830        0.37075028        0.25660395        1.75000000        1.47945394
    20.82921382       42.88598839        0.37255623        0.25569737        1.75000000        1.47777540
    20.88975998       42.94113849        0.37436108        0.25479004        1.75000000        1.47609886
    20.95013891       42.99628858        0.37616481        0.25388194        1.75000000        1.47442430
    21.01035204       43.05143868        0.37796746        0.25297306        1.75000000        1.47275172
    21.07040080       43.10658877        0.37976902        0.25206339        1.75000000        1.47108111
    21.13028656       43.16173887        0.38156952        0.25115290        1.75000000        1.46941245
    21.19001067       43.21688896        0.38336896        0.25024159        1.75000000        1.46774575
    21.24957449       43.27203906        0.38516736        0.24932944        1.75000000        1.46608099
    21.30897929       43.32718915        0.38696473        0.24841645        1.75000000        1.46441817
    21.36822636       43.38233925        0.38876107        0.24750259        1.75000000        1.46275727
    21.42731695       43.43748934        0.39055641        0.24658786        1.75000000        1.46109829
    21.48625230       43.49263944        0.39235074        0.24567225        1.75000000        1.45944122
    21.54503360       43.54778954        0.39414408        0.24475573        1.75000000        1.45778605
    21.60366204       43.60293963        0.39593644        0.24383830        1.75000000        1.45613277
    21.66213876       43.65808973        0.39772783        0.24291995        1.75000000        1.45448138
    21.72046493       43.71323982        0.39951825        0.24200066        1.75000000        1.45283187
    21.77864163       43.76838992        0.40130772        0.24108043        1.75000000        1.45118422
    21.83666997       43.82354001        0.40309624        0.24015923        1.75000000        1.44953844
    21.89455103       43.87869011        0.40488382        0.23923707        1.75000000        1.44789452
    21.95228584       43.93384020        0.40667047        0.23831392        1.75000000        1.44625244
    22.00987545       43.98899030        0.40845620        0.23738978        1.75000000        1.44461220
    22.06732086       44.04414039        0.41024101        0.23646463        1.75000000        1.44297379
    22.12462308       44.09929049        0.41202491        0.23553847        1.75000000        1.44133721
    22.18178307       44.15444059        0.41380791        0.23461128        1.75000000        1.43970244
    22.23880179       44.20959068        0.41559002        0.23368305        1.75000000        1.43806948
    22.29568018       44.26474078        0.41737123        0.23275377        1.75000000        1.43643833
    22.35241917       44.31989087        0.41915156        0.23182344        1.75000000        1.43480897
    22.40901965       44.37504097        0.42093102        0.23089203        1.75000000        1.43318140
    22.46548252       44.43019106        0.42270960        0.22995954        1.75000000        1.43155561
    22.52180865       44.48534116        0.42448732        0.22902596        1.75000000        1.42993160
    22.57799889       44.54049125        0.42626417        0.22809128        1.75000000        1.42830936
    22.63405409       44.59564135        0.42804017        0.22715548        1.75000000        1.42668887
    22.68997507       44.65079144        0.42981532        0.22621857        1.75000000        1.42507014
    22.74576264       44.70594154        0.43158962        0.22528052        1.75000000        1.42345316
    22.80141759       44.76109163        0.43336308        0.22434133        1.75000000        1.42183792
