#  Theta paroi en deg Angle Choc en deg       Kp           Inverse Mach       Mach amont       Mach aval
     0.00000000       16.12762021        0.00000000        0.72222222        3.60000000
     1.42710084       16.12983638        0.00336545        0.72056065        3.60000000        3.59977758
     1.72598781       16.13293720        0.00461781        0.71995102        3.60000000        3.59946645
     2.04559211       16.13869195        0.00611315        0.71922908        3.60000000        3.59888928
     2.38978260       16.14886992        0.00789030        0.71837934        3.60000000        3.59786927
     2.74570529       16.16524041        0.00989793        0.71742991        3.60000000        3.59623080
     3.10602820       16.18957269        0.01209654        0.71640255        3.60000000        3.59380025
     3.46835263       16.22363607        0.01446828        0.71530837        3.60000000        3.59040724
     3.83283863       16.26919982        0.01701104        0.71415096        3.60000000        3.58588597
     4.20080973       16.32803324        0.01973313        0.71292923        3.60000000        3.58007677
     4.57408059       16.40190562        0.02264999        0.71163914        3.60000000        3.57282777
     4.88883084       16.47577800        0.02522934        0.71051408        3.60000000        3.56562799
     5.16562861       16.54965038        0.02758725        0.70949803        3.60000000        3.55847631
     5.41557155       16.62352276        0.02978789        0.70856005        3.60000000        3.55137165
     5.64538633       16.69739514        0.03187088        0.70768103        3.60000000        3.54431297
     5.85948340       16.77126752        0.03386260        0.70684829        3.60000000        3.53729925
     6.06092369       16.84513990        0.03578153        0.70605290        3.60000000        3.53032951
     6.25192532       16.91901228        0.03764123        0.70528833        3.60000000        3.52340277
     6.43415118       16.99288466        0.03945192        0.70454963        3.60000000        3.51651811
     6.60888244       17.06675704        0.04122152        0.70383297        3.60000000        3.50967463
     6.77712888       17.14062942        0.04295632        0.70313531        3.60000000        3.50287142
     6.93970150       17.21450180        0.04466139        0.70245418        3.60000000        3.49610765
     7.09726235       17.28837418        0.04634087        0.70178756        3.60000000        3.48938246
     7.25035943       17.36224656        0.04799821        0.70113377        3.60000000        3.48269506
     7.39945185       17.43611894        0.04963630        0.70049140        3.60000000        3.47604464
     7.54492839       17.50999132        0.05125759        0.69985924        3.60000000        3.46943044
     7.68712142       17.58386370        0.05286418        0.69923626        3.60000000        3.46285172
     7.82631745       17.65773608        0.05445788        0.69862156        3.60000000        3.45630773
     7.96276534       17.73160846        0.05604025        0.69801435        3.60000000        3.44979777
     8.09668277       17.80548084        0.05761266        0.69741397        3.60000000        3.44332115
     8.22826125       17.87935322        0.05917633        0.69681979        3.60000000        3.43687721
     8.35767032       17.95322560        0.06073232        0.69623128        3.60000000        3.43046527
     8.48506074       18.02709798        0.06228157        0.69564796        3.60000000        3.42408472
     8.61056735       18.10097036        0.06382494        0.69506940        3.60000000        3.41773491
     8.73431110       18.17484274        0.06536317        0.69449521        3.60000000        3.41141526
     8.85640107       18.24871512        0.06689694        0.69392505        3.60000000        3.40512517
     8.97693596       18.32258750        0.06842687        0.69335859        3.60000000        3.39886407
     9.09600536       18.39645988        0.06995352        0.69279554        3.60000000        3.39263139
     9.21369090       18.47033226        0.07147738        0.69223565        3.60000000        3.38642660
     9.33006715       18.54420464        0.07299890        0.69167865        3.60000000        3.38024917
     9.44520246       18.61807702        0.07451852        0.69112434        3.60000000        3.37409856
     9.55915961       18.69194940        0.07603661        0.69057251        3.60000000        3.36797429
     9.67199645       18.76582178        0.07755352        0.69002296        3.60000000        3.36187586
     9.78376637       18.83969416        0.07906957        0.68947553        3.60000000        3.35580279
     9.89451880       18.91356654        0.08058505        0.68893004        3.60000000        3.34975462
    10.00429957       18.98743892        0.08210025        0.68838635        3.60000000        3.34373088
    10.11315127       19.06131130        0.08361540        0.68784431        3.60000000        3.33773113
    10.22111354       19.13518368        0.08513075        0.68730380        3.60000000        3.33175495
    10.32822338       19.20905606        0.08664651        0.68676468        3.60000000        3.32580191
    10.43451534       19.28292843        0.08816287        0.68622685        3.60000000        3.31987159
    10.54002175       19.35680081        0.08968003        0.68569019        3.60000000        3.31396360
    10.64477293       19.43067319        0.09119816        0.68515460        3.60000000        3.30807755
    10.74879736       19.50454557        0.09271741        0.68461998        3.60000000        3.30221304
    10.85212177       19.57841795        0.09423793        0.68408625        3.60000000        3.29636972
    10.95477136       19.65229033        0.09575988        0.68355332        3.60000000        3.29054721
    11.05676986       19.72616271        0.09728337        0.68302111        3.60000000        3.28474516
    11.15813968       19.80003509        0.09880853        0.68248954        3.60000000        3.27896322
    11.25890200       19.87390747        0.10033547        0.68195853        3.60000000        3.27320107
    11.35907686       19.94777985        0.10186430        0.68142803        3.60000000        3.26745835
    11.45868322       20.02165223        0.10339512        0.68089796        3.60000000        3.26173477
    11.55773908       20.09552461        0.10492802        0.68036825        3.60000000        3.25602999
    11.65626150       20.16939699        0.10646310        0.67983887        3.60000000        3.25034372
    11.75426672       20.24326937        0.10800043        0.67930973        3.60000000        3.24467565
    11.85177016       20.31714175        0.10954009        0.67878080        3.60000000        3.23902549
    11.94878650       20.39101413        0.11108216        0.67825202        3.60000000        3.23339296
    12.04532972       20.46488651        0.11262670        0.67772334        3.60000000        3.22777778
    12.14141317       20.53875889        0.11417378        0.67719471        3.60000000        3.22217967
    12.23704958       20.61263127        0.11572345        0.67666609        3.60000000        3.21659838
    12.33225110       20.68650365        0.11727579        0.67613744        3.60000000        3.21103363
    12.42702936       20.76037603        0.11883083        0.67560871        3.60000000        3.20548519
    12.52139546       20.83424841        0.12038863        0.67507986        3.60000000        3.19995280
    12.61536004       20.90812079        0.12194924        0.67455086        3.60000000        3.19443621
    12.70893331       20.98199317        0.12351271        0.67402167        3.60000000        3.18893520
    12.80212502       21.05586555        0.12507907        0.67349226        3.60000000        3.18344953
    12.89494455       21.12973793        0.12664836        0.67296258        3.60000000        3.17797898
    12.98740089       21.20361031        0.12822063        0.67243262        3.60000000        3.17252333
    13.07950267       21.27748269        0.12979591        0.67190232        3.60000000        3.16708236
    13.17125821       21.35135507        0.13137422        0.67137168        3.60000000        3.16165586
    13.26267547       21.42522745        0.13295561        0.67084065        3.60000000        3.15624363
    13.35376214       21.49909983        0.13454010        0.67030921        3.60000000        3.15084547
    13.44452561       21.57297221        0.13612773        0.66977732        3.60000000        3.14546118
    13.53497300       21.64684459        0.13771850        0.66924498        3.60000000        3.14009057
    13.62511117       21.72071697        0.13931246        0.66871214        3.60000000        3.13473346
    13.71494672       21.79458935        0.14090963        0.66817878        3.60000000        3.12938966
    13.80448605       21.86846173        0.14251001        0.66764489        3.60000000        3.12405898
    13.89373532       21.94233411        0.14411365        0.66711043        3.60000000        3.11874127
    13.98270045       22.01620649        0.14572055        0.66657539        3.60000000        3.11343634
    14.07138721       22.09007887        0.14733073        0.66603974        3.60000000        3.10814404
    14.15980112       22.16395125        0.14894421        0.66550346        3.60000000        3.10286419
    14.24794758       22.23782363        0.15056100        0.66496653        3.60000000        3.09759664
    14.33583176       22.31169601        0.15218113        0.66442893        3.60000000        3.09234123
    14.42345868       22.38556839        0.15380459        0.66389065        3.60000000        3.08709781
    14.51083321       22.45944077        0.15543142        0.66335165        3.60000000        3.08186624
    14.59796005       22.53331315        0.15706161        0.66281194        3.60000000        3.07664636
    14.68484377       22.60718553        0.15869518        0.66227147        3.60000000        3.07143803
    14.77148878       22.68105791        0.16033213        0.66173025        3.60000000        3.06624112
    14.85789936       22.75493028        0.16197249        0.66118825        3.60000000        3.06105548
    14.94407969       22.82880266        0.16361625        0.66064546        3.60000000        3.05588099
    15.03003377       22.90267504        0.16526342        0.66010185        3.60000000        3.05071752
    15.11576553       22.97654742        0.16691402        0.65955742        3.60000000        3.04556493
    15.20127877       23.05041980        0.16856804        0.65901215        3.60000000        3.04042311
    15.28657717       23.12429218        0.17022550        0.65846602        3.60000000        3.03529193
    15.37166432       23.19816456        0.17188639        0.65791902        3.60000000        3.03017128
    15.45654369       23.27203694        0.17355073        0.65737114        3.60000000        3.02506103
    15.54121867       23.34590932        0.17521851        0.65682236        3.60000000        3.01996107
    15.62569255       23.41978170        0.17688974        0.65627267        3.60000000        3.01487129
    15.70996854       23.49365408        0.17856443        0.65572205        3.60000000        3.00979159
    15.79404975       23.56752646        0.18024257        0.65517049        3.60000000        3.00472185
    15.87793919       23.64139884        0.18192417        0.65461798        3.60000000        2.99966198
    15.96163983       23.71527122        0.18360923        0.65406451        3.60000000        2.99461186
    16.04515452       23.78914360        0.18529776        0.65351007        3.60000000        2.98957141
    16.12848609       23.86301598        0.18698974        0.65295463        3.60000000        2.98454051
    16.21163723       23.93688836        0.18868518        0.65239820        3.60000000        2.97951909
    16.29461061       24.01076074        0.19038409        0.65184076        3.60000000        2.97450703
    16.37740882       24.08463312        0.19208646        0.65128229        3.60000000        2.96950426
    16.46003437       24.15850550        0.19379229        0.65072279        3.60000000        2.96451069
    16.54248972       24.23237788        0.19550158        0.65016225        3.60000000        2.95952621
    16.62477728       24.30625026        0.19721432        0.64960066        3.60000000        2.95455076
    16.70689937       24.38012264        0.19893052        0.64903800        3.60000000        2.94958424
    16.78885828       24.45399502        0.20065018        0.64847427        3.60000000        2.94462658
    16.87065624       24.52786740        0.20237329        0.64790945        3.60000000        2.93967769
    16.95229543       24.60173978        0.20409984        0.64734353        3.60000000        2.93473749
    17.03377795       24.67561216        0.20582984        0.64677652        3.60000000        2.92980592
    17.11510590       24.74948454        0.20756329        0.64620839        3.60000000        2.92488288
    17.19628128       24.82335692        0.20930017        0.64563914        3.60000000        2.91996832
    17.27730608       24.89722930        0.21104049        0.64506875        3.60000000        2.91506215
    17.35818224       24.97110168        0.21278424        0.64449722        3.60000000        2.91016431
    17.43891162       25.04497406        0.21453142        0.64392455        3.60000000        2.90527472
    17.51949610       25.11884644        0.21628202        0.64335071        3.60000000        2.90039333
    17.59993746       25.19271882        0.21803603        0.64277571        3.60000000        2.89552005
    17.68023747       25.26659120        0.21979346        0.64219953        3.60000000        2.89065484
    17.76039784       25.34046358        0.22155430        0.64162217        3.60000000        2.88579762
    17.84042029       25.41433596        0.22331854        0.64104361        3.60000000        2.88094834
    17.92030644       25.48820834        0.22508618        0.64046385        3.60000000        2.87610692
    18.00005792       25.56208072        0.22685720        0.63988288        3.60000000        2.87127332
    18.07967632       25.63595310        0.22863162        0.63930070        3.60000000        2.86644748
    18.15916316       25.70982548        0.23040941        0.63871729        3.60000000        2.86162933
    18.23851996       25.78369786        0.23219057        0.63813265        3.60000000        2.85681882
    18.31774821       25.85757024        0.23397510        0.63754677        3.60000000        2.85201590
    18.39684937       25.93144262        0.23576299        0.63695964        3.60000000        2.84722051
    18.47582483       26.00531500        0.23755423        0.63637126        3.60000000        2.84243260
    18.55467601       26.07918738        0.23934882        0.63578161        3.60000000        2.83765212
    18.63340426       26.15305976        0.24114675        0.63519069        3.60000000        2.83287902
    18.71201092       26.22693213        0.24294800        0.63459850        3.60000000        2.82811325
    18.79049729       26.30080451        0.24475258        0.63400502        3.60000000        2.82335475
    18.86886466       26.37467689        0.24656048        0.63341025        3.60000000        2.81860349
    18.94711429       26.44854927        0.24837169        0.63281418        3.60000000        2.81385942
    19.02524739       26.52242165        0.25018620        0.63221680        3.60000000        2.80912249
    19.10326519       26.59629403        0.25200400        0.63161811        3.60000000        2.80439266
    19.18116886       26.67016641        0.25382509        0.63101811        3.60000000        2.79966987
    19.25895957       26.74403879        0.25564945        0.63041678        3.60000000        2.79495410
    19.33663846       26.81791117        0.25747708        0.62981411        3.60000000        2.79024530
    19.41420662       26.89178355        0.25930797        0.62921011        3.60000000        2.78554342
    19.49166517       26.96565593        0.26114212        0.62860476        3.60000000        2.78084843
    19.56901518       27.03952831        0.26297950        0.62799805        3.60000000        2.77616029
    19.64625768       27.11340069        0.26482013        0.62738999        3.60000000        2.77147896
    19.72339373       27.18727307        0.26666397        0.62678057        3.60000000        2.76680440
    19.80042434       27.26114545        0.26851104        0.62616977        3.60000000        2.76213657
    19.87735049       27.33501783        0.27036131        0.62555759        3.60000000        2.75747544
    19.95417317       27.40889021        0.27221478        0.62494404        3.60000000        2.75282097
    20.03089333       27.48276259        0.27407144        0.62432909        3.60000000        2.74817313
    20.10751191       27.55663497        0.27593127        0.62371274        3.60000000        2.74353188
    20.18402984       27.63050735        0.27779428        0.62309499        3.60000000        2.73889719
    20.26044801       27.70437973        0.27966045        0.62247583        3.60000000        2.73426903
    20.33676734       27.77825211        0.28152977        0.62185526        3.60000000        2.72964736
    20.41298867       27.85212449        0.28340224        0.62123327        3.60000000        2.72503215
    20.48911287       27.92599687        0.28527783        0.62060985        3.60000000        2.72042337
    20.56514080       27.99986925        0.28715655        0.61998500        3.60000000        2.71582099
    20.64107326       28.07374163        0.28903838        0.61935871        3.60000000        2.71122498
    20.71691108       28.14761401        0.29092331        0.61873097        3.60000000        2.70663532
    20.79265505       28.22148639        0.29281133        0.61810178        3.60000000        2.70205196
    20.86830595       28.29535877        0.29470243        0.61747114        3.60000000        2.69747489
    20.94386457       28.36923115        0.29659661        0.61683904        3.60000000        2.69290408
    21.01933164       28.44310353        0.29849385        0.61620546        3.60000000        2.68833950
    21.09470793       28.51697591        0.30039413        0.61557042        3.60000000        2.68378112
    21.16999415       28.59084829        0.30229746        0.61493389        3.60000000        2.67922891
    21.24519102       28.66472067        0.30420382        0.61429588        3.60000000        2.67468286
    21.32029926       28.73859305        0.30611320        0.61365638        3.60000000        2.67014293
    21.39531955       28.81246543        0.30802559        0.61301538        3.60000000        2.66560910
    21.47025257       28.88633781        0.30994097        0.61237288        3.60000000        2.66108135
    21.54509900       28.96021019        0.31185934        0.61172887        3.60000000        2.65655965
    21.61985949       29.03408257        0.31378069        0.61108335        3.60000000        2.65204399
    21.69453470       29.10795495        0.31570501        0.61043631        3.60000000        2.64753432
    21.76912524       29.18182733        0.31763227        0.60978774        3.60000000        2.64303065
    21.84363176       29.25569971        0.31956249        0.60913765        3.60000000        2.63853293
    21.91805487       29.32957209        0.32149563        0.60848601        3.60000000        2.63404115
    21.99239516       29.40344447        0.32343170        0.60783284        3.60000000        2.62955530
