#  Theta paroi en deg Angle Choc en deg       Kp           Inverse Mach       Mach amont       Mach aval
     0.00000000       25.77146174        0.00000000        0.56521739        2.30000000
     1.86769197       25.77338860        0.00623825        0.56244081        2.30000000        2.29989613
     2.24654468       25.77608461        0.00850770        0.56143768        2.30000000        2.29975081
     2.65721919       25.78108809        0.01125553        0.56022796        2.30000000        2.29948118
     3.10163690       25.78993736        0.01454039        0.55878865        2.30000000        2.29900450
     3.56105016       25.80417072        0.01825248        0.55717090        2.30000000        2.29823830
     4.02425700       25.82532649        0.02230088        0.55541694        2.30000000        2.29710060
     4.48679333       25.85494298        0.02663350        0.55355145        2.30000000        2.29551020
     4.94774809       25.89455851        0.03122681        0.55158647        2.30000000        2.29338702
     5.40786777       25.94571139        0.03607571        0.54952593        2.30000000        2.29065251
     5.86862756       26.00993992        0.04118717        0.54736864        2.30000000        2.28723005
     6.25217936       26.07416846        0.04563237        0.54550451        2.30000000        2.28381977
     6.58562246       26.13839700        0.04963453        0.54383540        2.30000000        2.28042152
     6.88359207       26.20262554        0.05331767        0.54230683        2.30000000        2.27703515
     7.15496486       26.26685408        0.05675872        0.54088503        2.30000000        2.27366052
     7.40556369       26.33108262        0.06000904        0.53954750        2.30000000        2.27029749
     7.63943136       26.39531115        0.06310483        0.53827834        2.30000000        2.26694592
     7.85949847       26.45953969        0.06607266        0.53706592        2.30000000        2.26360568
     8.06796260       26.52376823        0.06893269        0.53590141        2.30000000        2.26027662
     8.26651743       26.58799677        0.07170058        0.53477794        2.30000000        2.25695863
     8.45649808       26.65222531        0.07438880        0.53369003        2.30000000        2.25365156
     8.63897721       26.71645385        0.07700743        0.53263328        2.30000000        2.25035530
     8.81483059       26.78068238        0.07956477        0.53160403        2.30000000        2.24706971
     8.98478331       26.84491092        0.08206771        0.53059927        2.30000000        2.24379468
     9.14944298       26.90913946        0.08452207        0.52961644        2.30000000        2.24053007
     9.30932424       26.97336800        0.08693280        0.52865335        2.30000000        2.23727577
     9.46486712       27.03759654        0.08930415        0.52770815        2.30000000        2.23403167
     9.61645102       27.10182507        0.09163979        0.52677920        2.30000000        2.23079763
     9.76440555       27.16605361        0.09394294        0.52586510        2.30000000        2.22757356
     9.90901904       27.23028215        0.09621640        0.52496461        2.30000000        2.22435932
    10.05054525       27.29451069        0.09846266        0.52407663        2.30000000        2.22115483
    10.18920883       27.35873923        0.10068391        0.52320017        2.30000000        2.21795995
    10.32520958       27.42296777        0.10288213        0.52233438        2.30000000        2.21477459
    10.45872617       27.48719630        0.10505908        0.52147846        2.30000000        2.21159864
    10.58991897       27.55142484        0.10721632        0.52063172        2.30000000        2.20843199
    10.71893259       27.61565338        0.10935530        0.51979351        2.30000000        2.20527455
    10.84589785       27.67988192        0.11147729        0.51896327        2.30000000        2.20212619
    10.97093358       27.74411046        0.11358349        0.51814046        2.30000000        2.19898684
    11.09414796       27.80833900        0.11567495        0.51732461        2.30000000        2.19585638
    11.21563990       27.87256753        0.11775267        0.51651526        2.30000000        2.19273472
    11.33550002       27.93679607        0.11981753        0.51571202        2.30000000        2.18962177
    11.45381155       28.00102461        0.12187036        0.51491452        2.30000000        2.18651742
    11.57065120       28.06525315        0.12391192        0.51412240        2.30000000        2.18342159
    11.68608975       28.12948169        0.12594291        0.51333536        2.30000000        2.18033418
    11.80019274       28.19371023        0.12796399        0.51255308        2.30000000        2.17725510
    11.91302089       28.25793876        0.12997574        0.51177531        2.30000000        2.17418427
    12.02463069       28.32216730        0.13197874        0.51100177        2.30000000        2.17112158
    12.13507465       28.38639584        0.13397349        0.51023224        2.30000000        2.16806697
    12.24440180       28.45062438        0.13596049        0.50946648        2.30000000        2.16502033
    12.35265791       28.51485292        0.13794018        0.50870429        2.30000000        2.16198160
    12.45988581       28.57908145        0.13991298        0.50794548        2.30000000        2.15895067
    12.56612566       28.64330999        0.14187930        0.50718985        2.30000000        2.15592748
    12.67141513       28.70753853        0.14383949        0.50643723        2.30000000        2.15291193
    12.77578963       28.77176707        0.14579391        0.50568746        2.30000000        2.14990396
    12.87928250       28.83599561        0.14774288        0.50494038        2.30000000        2.14690348
    12.98192513       28.90022415        0.14968671        0.50419585        2.30000000        2.14391041
    13.08374715       28.96445268        0.15162569        0.50345373        2.30000000        2.14092467
    13.18477657       29.02868122        0.15356008        0.50271389        2.30000000        2.13794620
    13.28503985       29.09290976        0.15549015        0.50197620        2.30000000        2.13497492
    13.38456207       29.15713830        0.15741614        0.50124054        2.30000000        2.13201075
    13.48336696       29.22136684        0.15933827        0.50050681        2.30000000        2.12905362
    13.58147708       29.28559538        0.16125677        0.49977490        2.30000000        2.12610346
    13.67891383       29.34982391        0.16317183        0.49904470        2.30000000        2.12316020
    13.77569754       29.41405245        0.16508366        0.49831612        2.30000000        2.12022377
    13.87184758       29.47828099        0.16699243        0.49758906        2.30000000        2.11729411
    13.96738237       29.54250953        0.16889833        0.49686344        2.30000000        2.11437114
    14.06231948       29.60673807        0.17080151        0.49613917        2.30000000        2.11145479
    14.15667566       29.67096661        0.17270213        0.49541618        2.30000000        2.10854501
    14.25046691       29.73519514        0.17460035        0.49469438        2.30000000        2.10564172
    14.34370850       29.79942368        0.17649631        0.49397370        2.30000000        2.10274487
    14.43641504       29.86365222        0.17839014        0.49325407        2.30000000        2.09985439
    14.52860050       29.92788076        0.18028197        0.49253543        2.30000000        2.09697022
    14.62027825       29.99210930        0.18217193        0.49181769        2.30000000        2.09409230
    14.71146112       30.05633783        0.18406013        0.49110082        2.30000000        2.09122056
    14.80216139       30.12056637        0.18594669        0.49038473        2.30000000        2.08835495
    14.89239083       30.18479491        0.18783172        0.48966938        2.30000000        2.08549540
    14.98216075       30.24902345        0.18971530        0.48895470        2.30000000        2.08264187
    15.07148203       30.31325199        0.19159755        0.48824065        2.30000000        2.07979429
    15.16036508       30.37748053        0.19347856        0.48752717        2.30000000        2.07695261
    15.24881995       30.44170906        0.19535841        0.48681421        2.30000000        2.07411677
    15.33685629       30.50593760        0.19723719        0.48610172        2.30000000        2.07128671
    15.42448340       30.57016614        0.19911499        0.48538966        2.30000000        2.06846239
    15.51171020       30.63439468        0.20099187        0.48467798        2.30000000        2.06564375
    15.59854532       30.69862322        0.20286792        0.48396663        2.30000000        2.06283073
    15.68499707       30.76285176        0.20474321        0.48325558        2.30000000        2.06002328
    15.77107346       30.82708029        0.20661781        0.48254478        2.30000000        2.05722136
    15.85678224       30.89130883        0.20849178        0.48183419        2.30000000        2.05442491
    15.94213083       30.95553737        0.21036518        0.48112377        2.30000000        2.05163387
    16.02712647       31.01976591        0.21223808        0.48041349        2.30000000        2.04884822
    16.11177610       31.08399445        0.21411053        0.47970331        2.30000000        2.04606788
    16.19608646       31.14822299        0.21598259        0.47899319        2.30000000        2.04329282
    16.28006405       31.21245152        0.21785431        0.47828311        2.30000000        2.04052299
    16.36371515       31.27668006        0.21972575        0.47757302        2.30000000        2.03775834
    16.44704587       31.34090860        0.22159695        0.47686289        2.30000000        2.03499882
    16.53006209       31.40513714        0.22346796        0.47615270        2.30000000        2.03224440
    16.61276952       31.46936568        0.22533882        0.47544241        2.30000000        2.02949502
    16.69517368       31.53359421        0.22720959        0.47473199        2.30000000        2.02675064
    16.77727994       31.59782275        0.22908029        0.47402141        2.30000000        2.02401121
    16.85909347       31.66205129        0.23095098        0.47331064        2.30000000        2.02127670
    16.94061934       31.72627983        0.23282168        0.47259967        2.30000000        2.01854706
    17.02186241       31.79050837        0.23469244        0.47188845        2.30000000        2.01582224
    17.10282742       31.85473691        0.23656329        0.47117697        2.30000000        2.01310222
    17.18351898       31.91896544        0.23843427        0.47046519        2.30000000        2.01038694
    17.26394154       31.98319398        0.24030541        0.46975310        2.30000000        2.00767636
    17.34409946       32.04742252        0.24217673        0.46904066        2.30000000        2.00497045
    17.42399694       32.11165106        0.24404828        0.46832786        2.30000000        2.00226917
    17.50363807       32.17587960        0.24592008        0.46761467        2.30000000        1.99957247
    17.58302684       32.24010814        0.24779215        0.46690107        2.30000000        1.99688032
    17.66216712       32.30433667        0.24966453        0.46618703        2.30000000        1.99419269
    17.74106268       32.36856521        0.25153724        0.46547254        2.30000000        1.99150952
    17.81971716       32.43279375        0.25341030        0.46475756        2.30000000        1.98883079
    17.89813415       32.49702229        0.25528374        0.46404210        2.30000000        1.98615647
    17.97631710       32.56125083        0.25715758        0.46332611        2.30000000        1.98348650
    18.05426939       32.62547936        0.25903184        0.46260958        2.30000000        1.98082087
    18.13199432       32.68970790        0.26090655        0.46189249        2.30000000        1.97815952
    18.20949507       32.75393644        0.26278172        0.46117483        2.30000000        1.97550244
    18.28677478       32.81816498        0.26465737        0.46045657        2.30000000        1.97284958
    18.36383648       32.88239352        0.26653352        0.45973769        2.30000000        1.97020091
    18.44068314       32.94662206        0.26841020        0.45901818        2.30000000        1.96755639
    18.51731765       33.01085059        0.27028741        0.45829801        2.30000000        1.96491601
    18.59374281       33.07507913        0.27216517        0.45757718        2.30000000        1.96227971
    18.66996139       33.13930767        0.27404350        0.45685566        2.30000000        1.95964747
    18.74597606       33.20353621        0.27592241        0.45613344        2.30000000        1.95701926
    18.82178943       33.26776475        0.27780193        0.45541049        2.30000000        1.95439505
    18.89740407       33.33199329        0.27968205        0.45468681        2.30000000        1.95177480
    18.97282245       33.39622182        0.28156279        0.45396238        2.30000000        1.94915849
    19.04804701       33.46045036        0.28344417        0.45323718        2.30000000        1.94654608
    19.12308012       33.52467890        0.28532620        0.45251119        2.30000000        1.94393755
    19.19792411       33.58890744        0.28720889        0.45178440        2.30000000        1.94133287
    19.27258125       33.65313598        0.28909225        0.45105680        2.30000000        1.93873200
    19.34705373       33.71736452        0.29097630        0.45032837        2.30000000        1.93613492
    19.42134373       33.78159305        0.29286103        0.44959910        2.30000000        1.93354160
    19.49545336       33.84582159        0.29474646        0.44886896        2.30000000        1.93095201
    19.56938468       33.91005013        0.29663260        0.44813795        2.30000000        1.92836613
    19.64313972       33.97427867        0.29851946        0.44740606        2.30000000        1.92578393
    19.71672045       34.03850721        0.30040704        0.44667326        2.30000000        1.92320537
    19.79012880       34.10273574        0.30229536        0.44593955        2.30000000        1.92063044
    19.86336665       34.16696428        0.30418441        0.44520492        2.30000000        1.91805911
    19.93643586       34.23119282        0.30607421        0.44446934        2.30000000        1.91549135
    20.00933824       34.29542136        0.30796477        0.44373280        2.30000000        1.91292713
    20.08207555       34.35964990        0.30985609        0.44299530        2.30000000        1.91036644
    20.15464953       34.42387844        0.31174817        0.44225682        2.30000000        1.90780924
    20.22706185       34.48810697        0.31364101        0.44151735        2.30000000        1.90525552
    20.29931420       34.55233551        0.31553464        0.44077687        2.30000000        1.90270524
    20.37140819       34.61656405        0.31742904        0.44003537        2.30000000        1.90015839
    20.44334542       34.68079259        0.31932423        0.43929284        2.30000000        1.89761493
    20.51512742       34.74502113        0.32122021        0.43854928        2.30000000        1.89507485
    20.58675574       34.80924967        0.32311698        0.43780465        2.30000000        1.89253813
    20.65823187       34.87347820        0.32501454        0.43705897        2.30000000        1.89000473
    20.72955726       34.93770674        0.32691290        0.43631220        2.30000000        1.88747464
    20.80073336       35.00193528        0.32881206        0.43556435        2.30000000        1.88494784
    20.87176157       35.06616382        0.33071202        0.43481540        2.30000000        1.88242430
    20.94264326       35.13039236        0.33261279        0.43406533        2.30000000        1.87990400
    21.01337978       35.19462090        0.33451437        0.43331415        2.30000000        1.87738692
    21.08397246       35.25884943        0.33641675        0.43256183        2.30000000        1.87487304
    21.15442259       35.32307797        0.33831995        0.43180836        2.30000000        1.87236234
    21.22473145       35.38730651        0.34022396        0.43105374        2.30000000        1.86985479
    21.29490028       35.45153505        0.34212878        0.43029796        2.30000000        1.86735039
    21.36493030       35.51576359        0.34403441        0.42954099        2.30000000        1.86484909
    21.43482271       35.57999212        0.34594086        0.42878285        2.30000000        1.86235090
    21.50457869       35.64422066        0.34784813        0.42802350        2.30000000        1.85985578
    21.57419939       35.70844920        0.34975621        0.42726294        2.30000000        1.85736372
    21.64368593       35.77267774        0.35166510        0.42650117        2.30000000        1.85487469
    21.71303944       35.83690628        0.35357481        0.42573817        2.30000000        1.85238869
    21.78226100       35.90113482        0.35548533        0.42497393        2.30000000        1.84990568
    21.85135167       35.96536335        0.35739666        0.42420844        2.30000000        1.84742566
    21.92031252       36.02959189        0.35930881        0.42344169        2.30000000        1.84494860
    21.98914455       36.09382043        0.36122177        0.42267368        2.30000000        1.84247449
    22.05784879       36.15804897        0.36313553        0.42190438        2.30000000        1.84000330
    22.12642623       36.22227751        0.36505011        0.42113380        2.30000000        1.83753503
    22.19487783       36.28650605        0.36696550        0.42036192        2.30000000        1.83506964
    22.26320456       36.35073458        0.36888169        0.41958873        2.30000000        1.83260713
    22.33140734       36.41496312        0.37079868        0.41881423        2.30000000        1.83014748
    22.39948711       36.47919166        0.37271647        0.41803840        2.30000000        1.82769067
    22.46744476       36.54342020        0.37463507        0.41726123        2.30000000        1.82523668
    22.53528119       36.60764874        0.37655446        0.41648272        2.30000000        1.82278551
    22.60299725       36.67187728        0.37847465        0.41570286        2.30000000        1.82033712
    22.67059383       36.73610581        0.38039563        0.41492163        2.30000000        1.81789151
    22.73807173       36.80033435        0.38231740        0.41413902        2.30000000        1.81544866
    22.80543181       36.86456289        0.38423995        0.41335504        2.30000000        1.81300856
    22.87267486       36.92879143        0.38616329        0.41256966        2.30000000        1.81057118
    22.93980168       36.99301997        0.38808741        0.41178289        2.30000000        1.80813652
    23.00681307       37.05724850        0.39001231        0.41099470        2.30000000        1.80570455
    23.07370977       37.12147704        0.39193798        0.41020510        2.30000000        1.80327527
    23.14049256       37.18570558        0.39386442        0.40941407        2.30000000        1.80084866
    23.20716216       37.24993412        0.39579162        0.40862160        2.30000000        1.79842471
    23.27371932       37.31416266        0.39771959        0.40782769        2.30000000        1.79600339
