#  Theta paroi en deg Angle Choc en deg       Kp           Inverse Mach       Mach amont       Mach aval
     0.00000000       72.24720984        0.00000000        0.04761905        1.05000000
     1.83078398       72.24774242        0.00971584        0.04194912        1.05000000        1.04999423
     1.88793227       72.24848760        0.01027038        0.04162410        1.05000000        1.04998617
     1.98645218       72.24987056        0.01125732        0.04104526        1.05000000        1.04997120
     2.13576834       72.25231650        0.01282685        0.04012372        1.05000000        1.04994473
     2.32844274       72.25625061        0.01498114        0.03885685        1.05000000        1.04990216
     2.55046271       72.26209807        0.01764012        0.03728994        1.05000000        1.04983890
     2.78968306       72.27028408        0.02071235        0.03547505        1.05000000        1.04975038
     3.03793390       72.28123383        0.02412345        0.03345433        1.05000000        1.04963203
     3.29024160       72.29537250        0.02781903        0.03125832        1.05000000        1.04947932
     3.54368324       72.31312529        0.03176016        0.02890860        1.05000000        1.04928775
     3.75331404       72.33087808        0.03519167        0.02685608        1.05000000        1.04909637
     3.93360368       72.34863087        0.03826642        0.02501169        1.05000000        1.04890518
     4.09267441       72.36638366        0.04107381        0.02332329        1.05000000        1.04871417
     4.23558317       72.38413645        0.04367143        0.02175729        1.05000000        1.04852336
     4.36571182       72.40188924        0.04609888        0.02029060        1.05000000        1.04833273
     4.48544378       72.41964203        0.04838475        0.01890654        1.05000000        1.04814230
     4.59652763       72.43739482        0.05055048        0.01759261        1.05000000        1.04795205
     4.70028783       72.45514761        0.05261263        0.01633914        1.05000000        1.04776199
     4.79775379       72.47290040        0.05458427        0.01513850        1.05000000        1.04757212
     4.88974299       72.49065319        0.05647597        0.01398452        1.05000000        1.04738243
     4.97691647       72.50840598        0.05829640        0.01287216        1.05000000        1.04719294
     5.05981696       72.52615877        0.06005276        0.01179719        1.05000000        1.04700364
     5.13889615       72.54391156        0.06175113        0.01075608        1.05000000        1.04681452
     5.21453439       72.56166435        0.06339668        0.00974580        1.05000000        1.04662560
     5.28705510       72.57941714        0.06499388        0.00876376        1.05000000        1.04643686
     5.35673593       72.59716993        0.06654657        0.00780770        1.05000000        1.04624831
     5.42381716       72.61492272        0.06805814        0.00687565        1.05000000        1.04605995
     5.48850826       72.63267551        0.06953154        0.00596588        1.05000000        1.04587178
     5.55099302       72.65042830        0.07096941        0.00507686        1.05000000        1.04568379
     5.61143366       72.66818109        0.07237410        0.00420721        1.05000000        1.04549600
     5.66997421       72.68593388        0.07374768        0.00335573        1.05000000        1.04530840
     5.72674315       72.70368667        0.07509204        0.00252130        1.05000000        1.04512098
     5.78185561       72.72143946        0.07640889        0.00170294        1.05000000        1.04493375
     5.83541519       72.73919225        0.07769976        0.00089975        1.05000000        1.04474671
     5.88751554       72.75694504        0.07896606        0.00011091        1.05000000        1.04455986
     5.93824156       72.77469783        0.08020905       -0.00066432        1.05000000        1.04437320
     5.98767050       72.79245062        0.08142992       -0.00142663        1.05000000        1.04418673
     6.03587291       72.81020341        0.08262973       -0.00217665        1.05000000        1.04400045
     6.08291334       72.82795621        0.08380949       -0.00291496        1.05000000        1.04381435
     6.12885110       72.84570900        0.08497010       -0.00364208        1.05000000        1.04362844
     6.17374074       72.86346179        0.08611241       -0.00435852        1.05000000        1.04344273
     6.21763262       72.88121458        0.08723720       -0.00506472        1.05000000        1.04325720
     6.26057330       72.89896737        0.08834521       -0.00576112        1.05000000        1.04307186
     6.30260595       72.91672016        0.08943711       -0.00644812        1.05000000        1.04288671
     6.34377068       72.93447295        0.09051355       -0.00712608        1.05000000        1.04270174
     6.38410479       72.95222574        0.09157511       -0.00779535        1.05000000        1.04251697
     6.42364309       72.96997853        0.09262234       -0.00845625        1.05000000        1.04233238
     6.46241805       72.98773132        0.09365578       -0.00910910        1.05000000        1.04214799
     6.50046008       73.00548411        0.09467592       -0.00975416        1.05000000        1.04196378
     6.53779770       73.02323690        0.09568320       -0.01039173        1.05000000        1.04177976
     6.57445761       73.04098969        0.09667808       -0.01102203        1.05000000        1.04159593
     6.61046494       73.05874248        0.09766095       -0.01164533        1.05000000        1.04141229
     6.64584337       73.07649527        0.09863221       -0.01226184        1.05000000        1.04122883
     6.68061517       73.09424806        0.09959222       -0.01287177        1.05000000        1.04104557
     6.71480137       73.11200085        0.10054134       -0.01347534        1.05000000        1.04086249
     6.74842186       73.12975364        0.10147988       -0.01407272        1.05000000        1.04067961
     6.78149540       73.14750643        0.10240817       -0.01466411        1.05000000        1.04049691
     6.81403985       73.16525922        0.10332649       -0.01524968        1.05000000        1.04031440
     6.84607202       73.18301201        0.10423514       -0.01582958        1.05000000        1.04013208
     6.87760795       73.20076480        0.10513439       -0.01640399        1.05000000        1.03994994
     6.90866285       73.21851759        0.10602448       -0.01697304        1.05000000        1.03976800
     6.93925116       73.23627038        0.10690566       -0.01753689        1.05000000        1.03958624
     6.96938667       73.25402317        0.10777818       -0.01809566        1.05000000        1.03940468
     6.99908246       73.27177596        0.10864224       -0.01864948        1.05000000        1.03922330
     7.02835103       73.28952875        0.10949807       -0.01919849        1.05000000        1.03904211
     7.05720431       73.30728154        0.11034586       -0.01974280        1.05000000        1.03886111
     7.08565369       73.32503433        0.11118583       -0.02028252        1.05000000        1.03868030
     7.11371002       73.34278712        0.11201814       -0.02081777        1.05000000        1.03849967
     7.14138374       73.36053991        0.11284298       -0.02134864        1.05000000        1.03831924
     7.16868480       73.37829270        0.11366053       -0.02187524        1.05000000        1.03813899
     7.19562271       73.39604549        0.11447095       -0.02239766        1.05000000        1.03795893
     7.22220663       73.41379828        0.11527440       -0.02291600        1.05000000        1.03777906
     7.24844531       73.43155107        0.11607103       -0.02343035        1.05000000        1.03759938
     7.27434717       73.44930386        0.11686100       -0.02394079        1.05000000        1.03741989
     7.29992029       73.46705665        0.11764443       -0.02444740        1.05000000        1.03724059
     7.32517243       73.48480944        0.11842148       -0.02495027        1.05000000        1.03706147
     7.35011102       73.50256223        0.11919226       -0.02544947        1.05000000        1.03688255
     7.37474326       73.52031502        0.11995691       -0.02594507        1.05000000        1.03670381
     7.39907603       73.53806781        0.12071555       -0.02643715        1.05000000        1.03652526
     7.42311602       73.55582060        0.12146830       -0.02692577        1.05000000        1.03634690
     7.44686960       73.57357339        0.12221527       -0.02741100        1.05000000        1.03616873
     7.47034293       73.59132618        0.12295658       -0.02789291        1.05000000        1.03599074
     7.49354202       73.60907897        0.12369232       -0.02837155        1.05000000        1.03581295
     7.51647256       73.62683176        0.12442261       -0.02884699        1.05000000        1.03563534
     7.53914011       73.64458455        0.12514754       -0.02931928        1.05000000        1.03545792
     7.56155003       73.66233734        0.12586721       -0.02978848        1.05000000        1.03528070
     7.58370750       73.68009013        0.12658171       -0.03025465        1.05000000        1.03510366
     7.60561750       73.69784292        0.12729113       -0.03071783        1.05000000        1.03492680
     7.62728489       73.71559571        0.12799556       -0.03117808        1.05000000        1.03475014
     7.64871433       73.73334850        0.12869509       -0.03163545        1.05000000        1.03457367
     7.66991035       73.75110129        0.12938980       -0.03208998        1.05000000        1.03439738
     7.69087732       73.76885408        0.13007977       -0.03254172        1.05000000        1.03422128
     7.71161952       73.78660687        0.13076507       -0.03299072        1.05000000        1.03404537
     7.73214105       73.80435966        0.13144578       -0.03343701        1.05000000        1.03386965
     7.75244588       73.82211245        0.13212198       -0.03388065        1.05000000        1.03369412
     7.77253787       73.83986524        0.13279373       -0.03432167        1.05000000        1.03351878
     7.79242079       73.85761803        0.13346110       -0.03476012        1.05000000        1.03334362
     7.81209827       73.87537082        0.13412417       -0.03519602        1.05000000        1.03316866
     7.83157384       73.89312361        0.13478300       -0.03562943        1.05000000        1.03299388
     7.85085091       73.91087640        0.13543764       -0.03606037        1.05000000        1.03281929
     7.86993284       73.92862920        0.13608817       -0.03648888        1.05000000        1.03264489
     7.88882284       73.94638199        0.13673464       -0.03691500        1.05000000        1.03247068
     7.90752406       73.96413478        0.13737711       -0.03733876        1.05000000        1.03229665
     7.92603955       73.98188757        0.13801563       -0.03776020        1.05000000        1.03212282
     7.94437229       73.99964036        0.13865027       -0.03817934        1.05000000        1.03194917
     7.96252516       74.01739315        0.13928108       -0.03859621        1.05000000        1.03177572
     7.98050098       74.03514594        0.13990811       -0.03901085        1.05000000        1.03160245
     7.99830247       74.05289873        0.14053141       -0.03942329        1.05000000        1.03142937
     8.01593230       74.07065152        0.14115103       -0.03983355        1.05000000        1.03125647
     8.03339306       74.08840431        0.14176702       -0.04024167        1.05000000        1.03108377
     8.05068730       74.10615710        0.14237942       -0.04064767        1.05000000        1.03091126
     8.06781743       74.12390989        0.14298829       -0.04105157        1.05000000        1.03073893
     8.08478589       74.14166268        0.14359368       -0.04145341        1.05000000        1.03056679
     8.10159501       74.15941547        0.14419561       -0.04185321        1.05000000        1.03039484
     8.11824704       74.17716826        0.14479414       -0.04225099        1.05000000        1.03022308
     8.13474424       74.19492105        0.14538931       -0.04264678        1.05000000        1.03005151
     8.15108875       74.21267384        0.14598116       -0.04304060        1.05000000        1.02988013
     8.16728268       74.23042663        0.14656974       -0.04343248        1.05000000        1.02970893
     8.18332812       74.24817942        0.14715507       -0.04382243        1.05000000        1.02953793
     8.19922706       74.26593221        0.14773720       -0.04421048        1.05000000        1.02936711
     8.21498147       74.28368500        0.14831616       -0.04459666        1.05000000        1.02919648
     8.23059326       74.30143779        0.14889200       -0.04498098        1.05000000        1.02902604
     8.24606432       74.31919058        0.14946475       -0.04536346        1.05000000        1.02885579
     8.26139649       74.33694337        0.15003444       -0.04574412        1.05000000        1.02868572
     8.27659151       74.35469616        0.15060111       -0.04612299        1.05000000        1.02851585
     8.29165119       74.37244895        0.15116479       -0.04650008        1.05000000        1.02834616
     8.30657720       74.39020174        0.15172552       -0.04687541        1.05000000        1.02817667
     8.32137122       74.40795453        0.15228332       -0.04724900        1.05000000        1.02800736
     8.33603487       74.42570732        0.15283823       -0.04762087        1.05000000        1.02783824
     8.35056976       74.44346011        0.15339028       -0.04799103        1.05000000        1.02766930
     8.36497746       74.46121290        0.15393951       -0.04835950        1.05000000        1.02750056
     8.37925949       74.47896569        0.15448593       -0.04872631        1.05000000        1.02733201
     8.39341733       74.49671848        0.15502957       -0.04909146        1.05000000        1.02716364
     8.40745246       74.51447127        0.15557048       -0.04945497        1.05000000        1.02699546
     8.42136632       74.53222406        0.15610867       -0.04981686        1.05000000        1.02682747
     8.43516029       74.54997685        0.15664417       -0.05017715        1.05000000        1.02665967
     8.44883576       74.56772964        0.15717701       -0.05053584        1.05000000        1.02649206
     8.46239406       74.58548243        0.15770722       -0.05089296        1.05000000        1.02632464
     8.47583653       74.60323522        0.15823481       -0.05124851        1.05000000        1.02615740
     8.48916443       74.62098801        0.15875983       -0.05160252        1.05000000        1.02599036
     8.50237905       74.63874080        0.15928228       -0.05195500        1.05000000        1.02582350
     8.51548160       74.65649359        0.15980220       -0.05230596        1.05000000        1.02565683
     8.52847333       74.67424638        0.16031960       -0.05265541        1.05000000        1.02549035
     8.54135541       74.69199917        0.16083452       -0.05300337        1.05000000        1.02532406
     8.55412900       74.70975196        0.16134698       -0.05334985        1.05000000        1.02515796
     8.56679525       74.72750475        0.16185699       -0.05369487        1.05000000        1.02499204
     8.57935528       74.74525754        0.16236458       -0.05403843        1.05000000        1.02482632
     8.59181019       74.76301033        0.16286977       -0.05438054        1.05000000        1.02466078
     8.60416107       74.78076312        0.16337259       -0.05472123        1.05000000        1.02449543
     8.61640895       74.79851591        0.16387305       -0.05506050        1.05000000        1.02433027
     8.62855490       74.81626870        0.16437117       -0.05539837        1.05000000        1.02416530
     8.64059993       74.83402149        0.16486698       -0.05573484        1.05000000        1.02400052
     8.65254502       74.85177428        0.16536049       -0.05606993        1.05000000        1.02383593
     8.66439117       74.86952707        0.16585172       -0.05640364        1.05000000        1.02367152
     8.67613934       74.88727986        0.16634070       -0.05673600        1.05000000        1.02350730
     8.68779048       74.90503265        0.16682744       -0.05706700        1.05000000        1.02334328
     8.69934552       74.92278544        0.16731196       -0.05739666        1.05000000        1.02317944
     8.71080535       74.94053823        0.16779427       -0.05772499        1.05000000        1.02301579
     8.72217088       74.95829102        0.16827440       -0.05805200        1.05000000        1.02285233
     8.73344300       74.97604381        0.16875237       -0.05837770        1.05000000        1.02268905
     8.74462256       74.99379660        0.16922819       -0.05870210        1.05000000        1.02252597
     8.75571041       75.01154940        0.16970187       -0.05902521        1.05000000        1.02236307
     8.76670740       75.02930219        0.17017344       -0.05934704        1.05000000        1.02220036
     8.77761433       75.04705498        0.17064290       -0.05966759        1.05000000        1.02203785
     8.78843202       75.06480777        0.17111029       -0.05998688        1.05000000        1.02187552
     8.79916124       75.08256056        0.17157561       -0.06030492        1.05000000        1.02171338
     8.80980280       75.10031335        0.17203887       -0.06062171        1.05000000        1.02155142
     8.82035743       75.11806614        0.17250010       -0.06093726        1.05000000        1.02138966
     8.83082590       75.13581893        0.17295931       -0.06125159        1.05000000        1.02122808
     8.84120897       75.15357172        0.17341651       -0.06156469        1.05000000        1.02106670
     8.85150733       75.17132451        0.17387171       -0.06187658        1.05000000        1.02090550
     8.86172173       75.18907730        0.17432494       -0.06218727        1.05000000        1.02074449
     8.87185283       75.20683009        0.17477621       -0.06249676        1.05000000        1.02058367
     8.88190138       75.22458288        0.17522553       -0.06280506        1.05000000        1.02042304
     8.89186801       75.24233567        0.17567291       -0.06311218        1.05000000        1.02026260
     8.90175342       75.26008846        0.17611837       -0.06341813        1.05000000        1.02010234
     8.91155825       75.27784125        0.17656192       -0.06372291        1.05000000        1.01994228
     8.92128316       75.29559404        0.17700357       -0.06402653        1.05000000        1.01978240
     8.93092879       75.31334683        0.17744334       -0.06432900        1.05000000        1.01962271
     8.94049576       75.33109962        0.17788124       -0.06463033        1.05000000        1.01946321
     8.94998468       75.34885241        0.17831728       -0.06493052        1.05000000        1.01930390
     8.95939619       75.36660520        0.17875148       -0.06522958        1.05000000        1.01914478
     8.96873087       75.38435799        0.17918384       -0.06552751        1.05000000        1.01898585
     8.97798929       75.40211078        0.17961439       -0.06582433        1.05000000        1.01882711
     8.98717208       75.41986357        0.18004312       -0.06612004        1.05000000        1.01866855
     8.99627977       75.43761636        0.18047005       -0.06641464        1.05000000        1.01851018
