#  Theta paroi en deg Angle Choc en deg       Kp           Inverse Mach       Mach amont       Mach aval
     0.00000000       30.33470506        0.00000000        0.49494949        1.98000000
     2.00784979       30.33649502        0.00748368        0.49158848        1.98000000        1.97991983
     2.40546385       30.33899949        0.01015306        0.49039463        1.98000000        1.97980767
     2.84074083       30.34364749        0.01341631        0.48893865        1.98000000        1.97959954
     3.31390272       30.35186804        0.01733715        0.48719420        1.98000000        1.97923155
     3.80386509       30.36509016        0.02177865        0.48522443        1.98000000        1.97863998
     4.29785945       30.38474288        0.02662501        0.48308258        1.98000000        1.97776137
     4.79052152       30.41225521        0.03180651        0.48080094        1.98000000        1.97653274
     5.28041661       30.44905617        0.03728748        0.47839648        1.98000000        1.97489178
     5.76796275       30.49657479        0.04305430        0.47587630        1.98000000        1.97277709
     6.25440693       30.55624009        0.04910761        0.47324117        1.98000000        1.97012842
     6.65779529       30.61590538        0.05434782        0.47096815        1.98000000        1.96748703
     7.00724567       30.67557068        0.05904529        0.46893672        1.98000000        1.96485284
     7.31849429       30.73523597        0.06335056        0.46707985        1.98000000        1.96222580
     7.60109026       30.79490127        0.06735718        0.46535590        1.98000000        1.95960582
     7.86130003       30.85456656        0.07112767        0.46373704        1.98000000        1.95699286
     8.10347572       30.91423186        0.07470619        0.46220364        1.98000000        1.95438684
     8.33077293       30.97389715        0.07812518        0.46074128        1.98000000        1.95178769
     8.54555851       31.03356245        0.08140926        0.45933900        1.98000000        1.94919537
     8.74965697       31.09322774        0.08457763        0.45798829        1.98000000        1.94660979
     8.94450678       31.15289304        0.08764554        0.45668234        1.98000000        1.94403091
     9.13126383       31.21255833        0.09062537        0.45541566        1.98000000        1.94145867
     9.31087197       31.27222363        0.09352729        0.45418373        1.98000000        1.93889299
     9.48411277       31.33188892        0.09635979        0.45298276        1.98000000        1.93633383
     9.65164123       31.39155422        0.09913001        0.45180958        1.98000000        1.93378112
     9.81401224       31.45121951        0.10184406        0.45066148        1.98000000        1.93123480
     9.97170025       31.51088481        0.10450717        0.44953612        1.98000000        1.92869483
    10.12511441       31.57055010        0.10712387        0.44843147        1.98000000        1.92616114
    10.27461021       31.63021540        0.10969814        0.44734578        1.98000000        1.92363367
    10.42049865       31.68988069        0.11223344        0.44627748        1.98000000        1.92111238
    10.56305346       31.74954599        0.11473285        0.44522522        1.98000000        1.91859720
    10.70251698       31.80921128        0.11719910        0.44418776        1.98000000        1.91608809
    10.83910481       31.86887658        0.11963462        0.44316402        1.98000000        1.91358498
    10.97300972       31.92854187        0.12204159        0.44215302        1.98000000        1.91108783
    11.10440478       31.98820717        0.12442198        0.44115387        1.98000000        1.90859659
    11.23344606       32.04787246        0.12677757        0.44016579        1.98000000        1.90611120
    11.36027475       32.10753776        0.12910997        0.43918805        1.98000000        1.90363161
    11.48501908       32.16720305        0.13142063        0.43821998        1.98000000        1.90115778
    11.60779587       32.22686835        0.13371090        0.43726099        1.98000000        1.89868965
    11.72871190       32.28653364        0.13598201        0.43631052        1.98000000        1.89622717
    11.84786498       32.34619894        0.13823506        0.43536807        1.98000000        1.89377030
    11.96534500       32.40586423        0.14047111        0.43443316        1.98000000        1.89131899
    12.08123477       32.46552953        0.14269109        0.43350537        1.98000000        1.88887318
    12.19561075       32.52519482        0.14489590        0.43258429        1.98000000        1.88643284
    12.30854369       32.58486012        0.14708633        0.43166955        1.98000000        1.88399792
    12.42009920       32.64452541        0.14926316        0.43076081        1.98000000        1.88156837
    12.53033825       32.70419071        0.15142709        0.42985774        1.98000000        1.87914414
    12.63931760       32.76385600        0.15357876        0.42896005        1.98000000        1.87672520
    12.74709019       32.82352130        0.15571879        0.42806745        1.98000000        1.87431150
    12.85370547       32.88318659        0.15784776        0.42717968        1.98000000        1.87190298
    12.95920972       32.94285189        0.15996619        0.42629650        1.98000000        1.86949962
    13.06364629       33.00251718        0.16207458        0.42541767        1.98000000        1.86710137
    13.16705591       33.06218248        0.16417341        0.42454297        1.98000000        1.86470818
    13.26947684       33.12184777        0.16626312        0.42367220        1.98000000        1.86232002
    13.37094508       33.18151307        0.16834411        0.42280516        1.98000000        1.85993684
    13.47149456       33.24117836        0.17041679        0.42194167        1.98000000        1.85755860
    13.57115730       33.30084366        0.17248152        0.42108157        1.98000000        1.85518526
    13.66996357       33.36050895        0.17453865        0.42022467        1.98000000        1.85281679
    13.76794195       33.42017425        0.17658850        0.41937083        1.98000000        1.85045314
    13.86511954       33.47983954        0.17863139        0.41851990        1.98000000        1.84809427
    13.96152199       33.53950484        0.18066762        0.41767174        1.98000000        1.84574015
    14.05717369       33.59917013        0.18269746        0.41682622        1.98000000        1.84339073
    14.15209774       33.65883543        0.18472117        0.41598320        1.98000000        1.84104599
    14.24631613       33.71850072        0.18673901        0.41514257        1.98000000        1.83870587
    14.33984979       33.77816602        0.18875121        0.41430421        1.98000000        1.83637035
    14.43271861       33.83783131        0.19075800        0.41346801        1.98000000        1.83403939
    14.52494159       33.89749661        0.19275961        0.41263387        1.98000000        1.83171296
    14.61653683       33.95716190        0.19475622        0.41180168        1.98000000        1.82939101
    14.70752161       34.01682720        0.19674805        0.41097136        1.98000000        1.82707351
    14.79791244       34.07649249        0.19873527        0.41014279        1.98000000        1.82476044
    14.88772509       34.13615778        0.20071806        0.40931590        1.98000000        1.82245174
    14.97697468       34.19582308        0.20269660        0.40849061        1.98000000        1.82014739
    15.06567564       34.25548837        0.20467104        0.40766682        1.98000000        1.81784736
    15.15384184       34.31515367        0.20664154        0.40684447        1.98000000        1.81555162
    15.24148652       34.37481896        0.20860825        0.40602347        1.98000000        1.81326012
    15.32862243       34.43448426        0.21057131        0.40520376        1.98000000        1.81097283
    15.41526179       34.49414955        0.21253085        0.40438525        1.98000000        1.80868974
    15.50141632       34.55381485        0.21448701        0.40356790        1.98000000        1.80641079
    15.58709729       34.61348014        0.21643991        0.40275162        1.98000000        1.80413597
    15.67231554       34.67314544        0.21838967        0.40193637        1.98000000        1.80186524
    15.75708151       34.73281073        0.22033641        0.40112207        1.98000000        1.79959856
    15.84140520       34.79247603        0.22228023        0.40030867        1.98000000        1.79733592
    15.92529631       34.85214132        0.22422124        0.39949612        1.98000000        1.79507727
    16.00876411       34.91180662        0.22615953        0.39868435        1.98000000        1.79282260
    16.09181759       34.97147191        0.22809522        0.39787332        1.98000000        1.79057186
    16.17446540       35.03113721        0.23002839        0.39706298        1.98000000        1.78832503
    16.25671587       35.09080250        0.23195912        0.39625327        1.98000000        1.78608209
    16.33857706       35.15046780        0.23388752        0.39544415        1.98000000        1.78384300
    16.42005675       35.21013309        0.23581365        0.39463557        1.98000000        1.78160773
    16.50116246       35.26979839        0.23773760        0.39382749        1.98000000        1.77937626
    16.58190143       35.32946368        0.23965945        0.39301986        1.98000000        1.77714856
    16.66228068       35.38912898        0.24157927        0.39221264        1.98000000        1.77492460
    16.74230702       35.44879427        0.24349713        0.39140579        1.98000000        1.77270436
    16.82198699       35.50845957        0.24541310        0.39059927        1.98000000        1.77048780
    16.90132695       35.56812486        0.24732725        0.38979304        1.98000000        1.76827491
    16.98033307       35.62779016        0.24923964        0.38898706        1.98000000        1.76606565
    17.05901131       35.68745545        0.25115032        0.38818131        1.98000000        1.76386000
    17.13736742       35.74712075        0.25305937        0.38737573        1.98000000        1.76165794
    17.21540702       35.80678604        0.25496683        0.38657029        1.98000000        1.75945944
    17.29313554       35.86645134        0.25687277        0.38576497        1.98000000        1.75726447
    17.37055823       35.92611663        0.25877723        0.38495973        1.98000000        1.75507301
    17.44768019       35.98578193        0.26068026        0.38415454        1.98000000        1.75288503
    17.52450640       36.04544722        0.26258192        0.38334936        1.98000000        1.75070052
    17.60104166       36.10511252        0.26448226        0.38254417        1.98000000        1.74851944
    17.67729064       36.16477781        0.26638131        0.38173893        1.98000000        1.74634177
    17.75325787       36.22444311        0.26827913        0.38093361        1.98000000        1.74416750
    17.82894777       36.28410840        0.27017576        0.38012820        1.98000000        1.74199659
    17.90436463       36.34377370        0.27207123        0.37932265        1.98000000        1.73982902
    17.97951260       36.40343899        0.27396559        0.37851695        1.98000000        1.73766477
    18.05439574       36.46310429        0.27585887        0.37771106        1.98000000        1.73550382
    18.12901799       36.52276958        0.27775112        0.37690497        1.98000000        1.73334615
    18.20338318       36.58243488        0.27964237        0.37609864        1.98000000        1.73119173
    18.27749505       36.64210017        0.28153265        0.37529205        1.98000000        1.72904055
    18.35135721       36.70176547        0.28342201        0.37448517        1.98000000        1.72689257
    18.42497321       36.76143076        0.28531046        0.37367799        1.98000000        1.72474778
    18.49834649       36.82109606        0.28719804        0.37287047        1.98000000        1.72260616
    18.57148040       36.88076135        0.28908479        0.37206260        1.98000000        1.72046769
    18.64437820       36.94042665        0.29097073        0.37125436        1.98000000        1.71833235
    18.71704310       37.00009194        0.29285589        0.37044571        1.98000000        1.71620011
    18.78947818       37.05975724        0.29474029        0.36963665        1.98000000        1.71407095
    18.86168647       37.11942253        0.29662397        0.36882714        1.98000000        1.71194487
    18.93367091       37.17908783        0.29850695        0.36801718        1.98000000        1.70982182
    19.00543439       37.23875312        0.30038925        0.36720673        1.98000000        1.70770181
    19.07697972       37.29841842        0.30227091        0.36639578        1.98000000        1.70558480
    19.14830962       37.35808371        0.30415193        0.36558430        1.98000000        1.70347078
    19.21942678       37.41774901        0.30603234        0.36477229        1.98000000        1.70135973
    19.29033379       37.47741430        0.30791218        0.36395972        1.98000000        1.69925163
    19.36103321       37.53707960        0.30979144        0.36314657        1.98000000        1.69714646
    19.43152753       37.59674489        0.31167017        0.36233282        1.98000000        1.69504420
    19.50181916       37.65641019        0.31354836        0.36151846        1.98000000        1.69294484
    19.57191048       37.71607548        0.31542606        0.36070346        1.98000000        1.69084836
    19.64180380       37.77574078        0.31730326        0.35988782        1.98000000        1.68875473
    19.71150139       37.83540607        0.31918000        0.35907151        1.98000000        1.68666395
    19.78100546       37.89507137        0.32105628        0.35825452        1.98000000        1.68457599
    19.85031818       37.95473666        0.32293212        0.35743682        1.98000000        1.68249083
    19.91944164       38.01440196        0.32480754        0.35661842        1.98000000        1.68040847
    19.98837793       38.07406725        0.32668256        0.35579927        1.98000000        1.67832888
    20.05712905       38.13373255        0.32855719        0.35497938        1.98000000        1.67625204
    20.12569699       38.19339784        0.33043143        0.35415873        1.98000000        1.67417795
    20.19408367       38.25306314        0.33230532        0.35333730        1.98000000        1.67210658
    20.26229099       38.31272843        0.33417885        0.35251507        1.98000000        1.67003791
    20.33032079       38.37239373        0.33605205        0.35169204        1.98000000        1.66797194
    20.39817488       38.43205902        0.33792492        0.35086818        1.98000000        1.66590864
    20.46585504       38.49172432        0.33979748        0.35004348        1.98000000        1.66384800
    20.53336300       38.55138961        0.34166973        0.34921793        1.98000000        1.66179000
    20.60070045       38.61105491        0.34354170        0.34839152        1.98000000        1.65973463
    20.66786905       38.67072020        0.34541338        0.34756422        1.98000000        1.65768188
    20.73487044       38.73038550        0.34728479        0.34673603        1.98000000        1.65563172
    20.80170620       38.79005079        0.34915594        0.34590693        1.98000000        1.65358415
    20.86837788       38.84971609        0.35102684        0.34507690        1.98000000        1.65153914
    20.93488703       38.90938138        0.35289749        0.34424595        1.98000000        1.64949669
    21.00123513       38.96904668        0.35476791        0.34341404        1.98000000        1.64745678
    21.06742365       39.02871197        0.35663811        0.34258118        1.98000000        1.64541939
    21.13345403       39.08837727        0.35850808        0.34174734        1.98000000        1.64338451
    21.19932768       39.14804256        0.36037785        0.34091251        1.98000000        1.64135213
    21.26504597       39.20770785        0.36224741        0.34007668        1.98000000        1.63932223
    21.33061025       39.26737315        0.36411678        0.33923985        1.98000000        1.63729480
    21.39602185       39.32703844        0.36598595        0.33840198        1.98000000        1.63526983
    21.46128207       39.38670374        0.36785494        0.33756309        1.98000000        1.63324730
    21.52639218       39.44636903        0.36972376        0.33672314        1.98000000        1.63122720
    21.59135343       39.50603433        0.37159240        0.33588214        1.98000000        1.62920951
    21.65616705       39.56569962        0.37346088        0.33504006        1.98000000        1.62719422
    21.72083423       39.62536492        0.37532920        0.33419690        1.98000000        1.62518133
    21.78535615       39.68503021        0.37719736        0.33335264        1.98000000        1.62317081
    21.84973396       39.74469551        0.37906537        0.33250728        1.98000000        1.62116266
    21.91396881       39.80436080        0.38093323        0.33166080        1.98000000        1.61915685
    21.97806179       39.86402610        0.38280095        0.33081319        1.98000000        1.61715339
    22.04201401       39.92369139        0.38466853        0.32996444        1.98000000        1.61515225
    22.10582652       39.98335669        0.38653598        0.32911453        1.98000000        1.61315343
    22.16950038       40.04302198        0.38840330        0.32826347        1.98000000        1.61115691
    22.23303661       40.10268728        0.39027048        0.32741123        1.98000000        1.60916268
    22.29643623       40.16235257        0.39213755        0.32655781        1.98000000        1.60717073
    22.35970024       40.22201787        0.39400449        0.32570320        1.98000000        1.60518105
    22.42282959       40.28168316        0.39587131        0.32484738        1.98000000        1.60319363
    22.48582525       40.34134846        0.39773802        0.32399034        1.98000000        1.60120845
    22.54868815       40.40101375        0.39960461        0.32313207        1.98000000        1.59922550
    22.61141922       40.46067905        0.40147108        0.32227257        1.98000000        1.59724477
    22.67401935       40.52034434        0.40333745        0.32141183        1.98000000        1.59526626
    22.73648944       40.58000964        0.40520371        0.32054982        1.98000000        1.59328994
    22.79883034       40.63967493        0.40706986        0.31968655        1.98000000        1.59131582
    22.86104294       40.69934023        0.40893591        0.31882200        1.98000000        1.58934387
    22.92312804       40.75900552        0.41080185        0.31795617        1.98000000        1.58737409
    22.98508650       40.81867082        0.41266768        0.31708903        1.98000000        1.58540647
    23.04691910       40.87833611        0.41453342        0.31622059        1.98000000        1.58344100
    23.10862665       40.93800141        0.41639905        0.31535084        1.98000000        1.58147766
    23.17020993       40.99766670        0.41826458        0.31447975        1.98000000        1.57951645
    23.23166970       41.05733200        0.42013001        0.31360733        1.98000000        1.57755736
