#  Theta paroi en deg Angle Choc en deg       Kp           Inverse Mach       Mach amont       Mach aval
     0.00000000       21.57057830        0.00000000        0.63235294        2.72000000
     1.70064590       21.57263118        0.00499986        0.63009037        2.72000000        2.71986230
     2.05135201       21.57550353        0.00684164        0.62926506        2.72000000        2.71966968
     2.42885496       21.58083427        0.00905596        0.62827845        2.72000000        2.71931229
     2.83619284       21.59026232        0.01169405        0.62711090        2.72000000        2.71868052
     3.25701678       21.60542662        0.01467208        0.62580297        2.72000000        2.71766526
     3.68171302       21.62796609        0.01792228        0.62438736        2.72000000        2.71615822
     4.10669001       21.65951965        0.02140845        0.62288236        2.72000000        2.71405246
     4.53151088       21.70172625        0.02511733        0.62129596        2.72000000        2.71124297
     4.95719485       21.75622479        0.02905066        0.61962964        2.72000000        2.70762734
     5.38539034       21.82465421        0.03322006        0.61788078        2.72000000        2.70310652
     5.74346571       21.89308363        0.03686700        0.61636532        2.72000000        2.69860660
     6.05605203       21.96151305        0.04016805        0.61500466        2.72000000        2.69412725
     6.33644497       22.02994248        0.04322112        0.61375530        2.72000000        2.68966814
     6.59270577       22.09837190        0.04608686        0.61259032        2.72000000        2.68522897
     6.83012106       22.16680132        0.04880568        0.61149177        2.72000000        2.68080943
     7.05236054       22.23523074        0.05140602        0.61044703        2.72000000        2.67640922
     7.26208386       22.30366016        0.05390876        0.60944686        2.72000000        2.67202805
     7.46128512       22.37208958        0.05632967        0.60848425        2.72000000        2.66766562
     7.65150097       22.44051901        0.05868103        0.60755374        2.72000000        2.66332166
     7.83394264       22.50894843        0.06097259        0.60665101        2.72000000        2.65899589
     8.00958310       22.57737785        0.06321222        0.60577256        2.72000000        2.65468803
     8.17921664       22.64580727        0.06540639        0.60491551        2.72000000        2.65039782
     8.34350082       22.71423669        0.06756047        0.60407746        2.72000000        2.64612500
     8.50298664       22.78266611        0.06967900        0.60325640        2.72000000        2.64186931
     8.65814071       22.85109554        0.07176582        0.60245061        2.72000000        2.63763050
     8.80936200       22.91952496        0.07382423        0.60165861        2.72000000        2.63340832
     8.95699442       22.98795438        0.07585708        0.60087912        2.72000000        2.62920253
     9.10133678       23.05638380        0.07786685        0.60011103        2.72000000        2.62501289
     9.24265041       23.12481322        0.07985572        0.59935335        2.72000000        2.62083917
     9.38116530       23.19324264        0.08182561        0.59860523        2.72000000        2.61668114
     9.51708502       23.26167207        0.08377822        0.59786590        2.72000000        2.61253857
     9.65059064       23.33010149        0.08571506        0.59713466        2.72000000        2.60841125
     9.78184403       23.39853091        0.08763748        0.59641091        2.72000000        2.60429895
     9.91099052       23.46696033        0.08954669        0.59569408        2.72000000        2.60020147
    10.03816113       23.53538975        0.09144380        0.59498368        2.72000000        2.59611859
    10.16347435       23.60381917        0.09332980        0.59427926        2.72000000        2.59205011
    10.28703781       23.67224860        0.09520558        0.59358039        2.72000000        2.58799584
    10.40894954       23.74067802        0.09707196        0.59288670        2.72000000        2.58395557
    10.52929910       23.80910744        0.09892969        0.59219785        2.72000000        2.57992911
    10.64816858       23.87753686        0.10077945        0.59151350        2.72000000        2.57591627
    10.76563336       23.94596628        0.10262187        0.59083338        2.72000000        2.57191686
    10.88176290       24.01439570        0.10445753        0.59015721        2.72000000        2.56793070
    10.99662131       24.08282513        0.10628697        0.58948474        2.72000000        2.56395761
    11.11026792       24.15125455        0.10811066        0.58881572        2.72000000        2.55999741
    11.22275777       24.21968397        0.10992906        0.58814996        2.72000000        2.55604993
    11.33414195       24.28811339        0.11174260        0.58748724        2.72000000        2.55211500
    11.44446806       24.35654281        0.11355167        0.58682738        2.72000000        2.54819245
    11.55378046       24.42497223        0.11535663        0.58617020        2.72000000        2.54428212
    11.66212061       24.49340166        0.11715782        0.58551554        2.72000000        2.54038384
    11.76952730       24.56183108        0.11895555        0.58486324        2.72000000        2.53649746
    11.87603688       24.63026050        0.12075012        0.58421315        2.72000000        2.53262282
    11.98168346       24.69868992        0.12254181        0.58356514        2.72000000        2.52875976
    12.08649914       24.76711934        0.12433087        0.58291908        2.72000000        2.52490815
    12.19051405       24.83554876        0.12611755        0.58227484        2.72000000        2.52106782
    12.29375667       24.90397819        0.12790207        0.58163232        2.72000000        2.51723864
    12.39625382       24.97240761        0.12968464        0.58099140        2.72000000        2.51342045
    12.49803085       25.04083703        0.13146548        0.58035198        2.72000000        2.50961313
    12.59911174       25.10926645        0.13324476        0.57971396        2.72000000        2.50581653
    12.69951920       25.17769587        0.13502266        0.57907724        2.72000000        2.50203052
    12.79927474       25.24612529        0.13679936        0.57844175        2.72000000        2.49825497
    12.89839877       25.31455472        0.13857501        0.57780739        2.72000000        2.49448974
    12.99691069       25.38298414        0.14034976        0.57717409        2.72000000        2.49073470
    13.09482893       25.45141356        0.14212375        0.57654176        2.72000000        2.48698974
    13.19217101       25.51984298        0.14389712        0.57591034        2.72000000        2.48325472
    13.28895365       25.58827240        0.14566999        0.57527975        2.72000000        2.47952952
    13.38519276       25.65670183        0.14744248        0.57464994        2.72000000        2.47581403
    13.48090352       25.72513125        0.14921471        0.57402082        2.72000000        2.47210812
    13.57610044       25.79356067        0.15098678        0.57339235        2.72000000        2.46841169
    13.67079735       25.86199009        0.15275880        0.57276447        2.72000000        2.46472460
    13.76500751       25.93041951        0.15453086        0.57213711        2.72000000        2.46104677
    13.85874357       25.99884893        0.15630306        0.57151022        2.72000000        2.45737807
    13.95201768       26.06727836        0.15807548        0.57088376        2.72000000        2.45371839
    14.04484144       26.13570778        0.15984820        0.57025767        2.72000000        2.45006763
    14.13722601       26.20413720        0.16162131        0.56963191        2.72000000        2.44642569
    14.22918208       26.27256662        0.16339488        0.56900642        2.72000000        2.44279246
    14.32071990       26.34099604        0.16516898        0.56838116        2.72000000        2.43916784
    14.41184934       26.40942546        0.16694368        0.56775609        2.72000000        2.43555173
    14.50257985       26.47785489        0.16871905        0.56713118        2.72000000        2.43194404
    14.59292056       26.54628431        0.17049514        0.56650637        2.72000000        2.42834467
    14.68288022       26.61471373        0.17227202        0.56588163        2.72000000        2.42475351
    14.77246727       26.68314315        0.17404974        0.56525692        2.72000000        2.42117049
    14.86168984       26.75157257        0.17582836        0.56463221        2.72000000        2.41759551
    14.95055575       26.82000199        0.17760792        0.56400745        2.72000000        2.41402847
    15.03907256       26.88843142        0.17938847        0.56338263        2.72000000        2.41046930
    15.12724754       26.95686084        0.18117007        0.56275770        2.72000000        2.40691790
    15.21508771       27.02529026        0.18295275        0.56213263        2.72000000        2.40337419
    15.30259987       27.09371968        0.18473656        0.56150739        2.72000000        2.39983808
    15.38979057       27.16214910        0.18652153        0.56088195        2.72000000        2.39630949
    15.47666613       27.23057852        0.18830771        0.56025629        2.72000000        2.39278834
    15.56323268       27.29900795        0.19009514        0.55963036        2.72000000        2.38927455
    15.64949613       27.36743737        0.19188384        0.55900416        2.72000000        2.38576804
    15.73546222       27.43586679        0.19367385        0.55837764        2.72000000        2.38226874
    15.82113648       27.50429621        0.19546520        0.55775078        2.72000000        2.37877656
    15.90652428       27.57272563        0.19725792        0.55712357        2.72000000        2.37529143
    15.99163081       27.64115505        0.19905205        0.55649596        2.72000000        2.37181328
    16.07646111       27.70958448        0.20084760        0.55586795        2.72000000        2.36834204
    16.16102006       27.77801390        0.20264461        0.55523950        2.72000000        2.36487763
    16.24531241       27.84644332        0.20444310        0.55461059        2.72000000        2.36141998
    16.32934273       27.91487274        0.20624309        0.55398121        2.72000000        2.35796903
    16.41311548       27.98330216        0.20804460        0.55335132        2.72000000        2.35452470
    16.49663498       28.05173158        0.20984767        0.55272091        2.72000000        2.35108694
    16.57990544       28.12016101        0.21165230        0.55208996        2.72000000        2.34765566
    16.66293092       28.18859043        0.21345852        0.55145844        2.72000000        2.34423082
    16.74571538       28.25701985        0.21526635        0.55082635        2.72000000        2.34081234
    16.82826268       28.32544927        0.21707579        0.55019365        2.72000000        2.33740016
    16.91057655       28.39387869        0.21888688        0.54956032        2.72000000        2.33399422
    16.99266064       28.46230811        0.22069963        0.54892636        2.72000000        2.33059446
    17.07451847       28.53073754        0.22251405        0.54829174        2.72000000        2.32720082
    17.15615348       28.59916696        0.22433015        0.54765645        2.72000000        2.32381325
    17.23756904       28.66759638        0.22614795        0.54702046        2.72000000        2.32043167
    17.31876840       28.73602580        0.22796747        0.54638376        2.72000000        2.31705604
    17.39975472       28.80445522        0.22978871        0.54574634        2.72000000        2.31368629
    17.48053110       28.87288464        0.23161168        0.54510817        2.72000000        2.31032239
    17.56110055       28.94131407        0.23343640        0.54446924        2.72000000        2.30696426
    17.64146601       29.00974349        0.23526288        0.54382954        2.72000000        2.30361185
    17.72163033       29.07817291        0.23709112        0.54318905        2.72000000        2.30026512
    17.80159628       29.14660233        0.23892114        0.54254776        2.72000000        2.29692401
    17.88136661       29.21503175        0.24075294        0.54190564        2.72000000        2.29358847
    17.96094395       29.28346118        0.24258653        0.54126269        2.72000000        2.29025845
    18.04033088       29.35189060        0.24442192        0.54061889        2.72000000        2.28693390
    18.11952992       29.42032002        0.24625912        0.53997423        2.72000000        2.28361477
    18.19854355       29.48874944        0.24809813        0.53932869        2.72000000        2.28030102
    18.27737414       29.55717886        0.24993896        0.53868226        2.72000000        2.27699259
    18.35602406       29.62560828        0.25178161        0.53803492        2.72000000        2.27368944
    18.43449559       29.69403771        0.25362608        0.53738667        2.72000000        2.27039152
    18.51279096       29.76246713        0.25547239        0.53673749        2.72000000        2.26709879
    18.59091234       29.83089655        0.25732054        0.53608736        2.72000000        2.26381121
    18.66886190       29.89932597        0.25917053        0.53543628        2.72000000        2.26052873
    18.74664169       29.96775539        0.26102236        0.53478423        2.72000000        2.25725130
    18.82425376       30.03618481        0.26287604        0.53413120        2.72000000        2.25397889
    18.90170010       30.10461424        0.26473157        0.53347718        2.72000000        2.25071145
    18.97898265       30.17304366        0.26658895        0.53282215        2.72000000        2.24744894
    19.05610332       30.24147308        0.26844818        0.53216611        2.72000000        2.24419133
    19.13306396       30.30990250        0.27030927        0.53150904        2.72000000        2.24093856
    19.20986640       30.37833192        0.27217221        0.53085093        2.72000000        2.23769061
    19.28651242       30.44676134        0.27403702        0.53019177        2.72000000        2.23444743
    19.36300376       30.51519077        0.27590368        0.52953155        2.72000000        2.23120899
    19.43934212       30.58362019        0.27777220        0.52887026        2.72000000        2.22797524
    19.51552917       30.65204961        0.27964257        0.52820788        2.72000000        2.22474616
    19.59156654       30.72047903        0.28151481        0.52754441        2.72000000        2.22152170
    19.66745585       30.78890845        0.28338891        0.52687984        2.72000000        2.21830183
    19.74319863       30.85733787        0.28526486        0.52621415        2.72000000        2.21508651
    19.81879643       30.92576730        0.28714267        0.52554733        2.72000000        2.21187572
    19.89425076       30.99419672        0.28902233        0.52487938        2.72000000        2.20866940
    19.96956308       31.06262614        0.29090385        0.52421028        2.72000000        2.20546754
    20.04473484       31.13105556        0.29278722        0.52354003        2.72000000        2.20227009
    20.11976744       31.19948498        0.29467244        0.52286861        2.72000000        2.19907703
    20.19466226       31.26791440        0.29655951        0.52219601        2.72000000        2.19588832
    20.26942066       31.33634383        0.29844842        0.52152223        2.72000000        2.19270393
    20.34404398       31.40477325        0.30033918        0.52084726        2.72000000        2.18952384
    20.41853350       31.47320267        0.30223177        0.52017108        2.72000000        2.18634800
    20.49289051       31.54163209        0.30412621        0.51949368        2.72000000        2.18317638
    20.56711626       31.61006151        0.30602248        0.51881507        2.72000000        2.18000897
    20.64121198       31.67849093        0.30792058        0.51813522        2.72000000        2.17684573
    20.71517886       31.74692036        0.30982051        0.51745413        2.72000000        2.17368662
    20.78901810       31.81534978        0.31172226        0.51677178        2.72000000        2.17053163
    20.86273083       31.88377920        0.31362584        0.51608818        2.72000000        2.16738072
    20.93631822       31.95220862        0.31553123        0.51540331        2.72000000        2.16423386
    21.00978135       32.02063804        0.31743843        0.51471716        2.72000000        2.16109104
    21.08312134       32.08906746        0.31934744        0.51402973        2.72000000        2.15795221
    21.15633925       32.15749689        0.32125825        0.51334100        2.72000000        2.15481736
    21.22943613       32.22592631        0.32317086        0.51265096        2.72000000        2.15168646
    21.30241301       32.29435573        0.32508527        0.51195961        2.72000000        2.14855948
    21.37527092       32.36278515        0.32700146        0.51126695        2.72000000        2.14543640
    21.44801084       32.43121457        0.32891944        0.51057295        2.72000000        2.14231719
    21.52063374       32.49964399        0.33083920        0.50987761        2.72000000        2.13920182
    21.59314061       32.56807342        0.33276073        0.50918093        2.72000000        2.13609028
    21.66553236       32.63650284        0.33468403        0.50848289        2.72000000        2.13298254
    21.73780993       32.70493226        0.33660910        0.50778349        2.72000000        2.12987858
    21.80997422       32.77336168        0.33853592        0.50708271        2.72000000        2.12677837
    21.88202613       32.84179110        0.34046449        0.50638056        2.72000000        2.12368188
    21.95396653       32.91022053        0.34239481        0.50567702        2.72000000        2.12058911
    22.02579627       32.97864995        0.34432686        0.50497208        2.72000000        2.11750001
    22.09751622       33.04707937        0.34626065        0.50426574        2.72000000        2.11441459
    22.16912719       33.11550879        0.34819617        0.50355799        2.72000000        2.11133280
    22.24063000       33.18393821        0.35013340        0.50284882        2.72000000        2.10825463
    22.31202545       33.25236763        0.35207236        0.50213821        2.72000000        2.10518006
    22.38331433       33.32079706        0.35401301        0.50142618        2.72000000        2.10210907
    22.45449741       33.38922648        0.35595537        0.50071270        2.72000000        2.09904164
    22.52557545       33.45765590        0.35789943        0.49999777        2.72000000        2.09597775
    22.59654920       33.52608532        0.35984517        0.49928137        2.72000000        2.09291737
    22.66741938       33.59451474        0.36179259        0.49856351        2.72000000        2.08986049
    22.73818673       33.66294416        0.36374169        0.49784418        2.72000000        2.08680709
    22.80885195       33.73137359        0.36569245        0.49712337        2.72000000        2.08375715
    22.87941573       33.79980301        0.36764487        0.49640106        2.72000000        2.08071065
    22.94987877       33.86823243        0.36959894        0.49567725        2.72000000        2.07766758
