#  Theta paroi en deg Angle Choc en deg       Kp           Inverse Mach       Mach amont       Mach aval
     0.00000000       33.74898860        0.00000000        0.44444444        1.80000000
     2.08572346       33.75067613        0.00831061        0.44064689        1.80000000        1.79993274
     2.48918533       33.75303728        0.01121541        0.43932267        1.80000000        1.79983863
     2.93495990       33.75741930        0.01479771        0.43769174        1.80000000        1.79966401
     3.42167178       33.76516944        0.01912266        0.43572577        1.80000000        1.79935525
     3.92665744       33.77763494        0.02403473        0.43349681        1.80000000        1.79885885
     4.43607551       33.79616306        0.02940064        0.43106647        1.80000000        1.79812148
     4.94391838       33.82210102        0.03513784        0.42847296        1.80000000        1.79709019
     5.44835552       33.85679609        0.04120149        0.42573721        1.80000000        1.79571244
     5.94954019       33.90159551        0.04757114        0.42286896        1.80000000        1.79393637
     6.44852443       33.95784652        0.05424212        0.41987075        1.80000000        1.79171093
     6.86135881       34.01409753        0.06000226        0.41728631        1.80000000        1.78949060
     7.21821389       34.07034854        0.06515289        0.41497858        1.80000000        1.78727536
     7.53540466       34.12659955        0.06986211        0.41287113        1.80000000        1.78506515
     7.82283581       34.18285056        0.07423446        0.41091645        1.80000000        1.78285994
     8.08700944       34.23910157        0.07833993        0.40908274        1.80000000        1.78065970
     8.33244259       34.29535259        0.08222799        0.40734753        1.80000000        1.77846438
     8.56241121       34.35160360        0.08593501        0.40569432        1.80000000        1.77627394
     8.77937296       34.40785461        0.08948862        0.40411053        1.80000000        1.77408836
     8.98522260       34.46410562        0.09291038        0.40258640        1.80000000        1.77190759
     9.18145435       34.52035663        0.09621745        0.40111413        1.80000000        1.76973160
     9.36926898       34.57660764        0.09942373        0.39968740        1.80000000        1.76756034
     9.54964715       34.63285865        0.10254068        0.39830101        1.80000000        1.76539380
     9.72340099       34.68910967        0.10557785        0.39695062        1.80000000        1.76323192
     9.89121121       34.74536068        0.10854331        0.39563257        1.80000000        1.76107468
    10.05365450       34.80161169        0.11144393        0.39434373        1.80000000        1.75892205
    10.21122406       34.85786270        0.11428562        0.39308141        1.80000000        1.75677398
    10.36434518       34.91411371        0.11707351        0.39184328        1.80000000        1.75463044
    10.51338747       34.97036472        0.11981206        0.39062732        1.80000000        1.75249141
    10.65867427       35.02661573        0.12250522        0.38943172        1.80000000        1.75035684
    10.80049024       35.08286675        0.12515645        0.38825491        1.80000000        1.74822671
    10.93908732       35.13911776        0.12776885        0.38709548        1.80000000        1.74610098
    11.07468979       35.19536877        0.13034518        0.38595217        1.80000000        1.74397962
    11.20749809       35.25161978        0.13288790        0.38482384        1.80000000        1.74186259
    11.33769229       35.30787079        0.13539925        0.38370949        1.80000000        1.73974988
    11.46543468       35.36412180        0.13788124        0.38260819        1.80000000        1.73764144
    11.59087217       35.42037281        0.14033570        0.38151911        1.80000000        1.73553725
    11.71413815       35.47662383        0.14276429        0.38044148        1.80000000        1.73343727
    11.83535417       35.53287484        0.14516854        0.37937460        1.80000000        1.73134148
    11.95463130       35.58912585        0.14754984        0.37831784        1.80000000        1.72924985
    12.07207135       35.64537686        0.14990946        0.37727060        1.80000000        1.72716234
    12.18776785       35.70162787        0.15224859        0.37623236        1.80000000        1.72507892
    12.30180698       35.75787888        0.15456830        0.37520260        1.80000000        1.72299957
    12.41426831       35.81412989        0.15686961        0.37418086        1.80000000        1.72092426
    12.52522548       35.87038091        0.15915344        0.37316672        1.80000000        1.71885297
    12.63474677       35.92663192        0.16142065        0.37215978        1.80000000        1.71678565
    12.74289566       35.98288293        0.16367206        0.37115965        1.80000000        1.71472229
    12.84973123       36.03913394        0.16590841        0.37016600        1.80000000        1.71266285
    12.95530858       36.09538495        0.16813040        0.36917850        1.80000000        1.71060732
    13.05967919       36.15163596        0.17033868        0.36819684        1.80000000        1.70855565
    13.16289125       36.20788697        0.17253386        0.36722074        1.80000000        1.70650784
    13.26498992       36.26413799        0.17471653        0.36624992        1.80000000        1.70446384
    13.36601757       36.32038900        0.17688721        0.36528415        1.80000000        1.70242364
    13.46601404       36.37664001        0.17904642        0.36432318        1.80000000        1.70038720
    13.56501683       36.43289102        0.18119464        0.36336678        1.80000000        1.69835450
    13.66306128       36.48914203        0.18333231        0.36241474        1.80000000        1.69632552
    13.76018075       36.54539304        0.18545985        0.36146686        1.80000000        1.69430024
    13.85640671       36.60164405        0.18757768        0.36052296        1.80000000        1.69227861
    13.95176897       36.65789507        0.18968616        0.35958284        1.80000000        1.69026063
    14.04629574       36.71414608        0.19178566        0.35864635        1.80000000        1.68824627
    14.14001375       36.77039709        0.19387651        0.35771331        1.80000000        1.68623550
    14.23294837       36.82664810        0.19595905        0.35678358        1.80000000        1.68422829
    14.32512369       36.88289911        0.19803357        0.35585700        1.80000000        1.68222464
    14.41656262       36.93915012        0.20010038        0.35493344        1.80000000        1.68022450
    14.50728693       36.99540113        0.20215973        0.35401276        1.80000000        1.67822786
    14.59731737       37.05165215        0.20421190        0.35309484        1.80000000        1.67623470
    14.68667372       37.10790316        0.20625714        0.35217954        1.80000000        1.67424498
    14.77537484       37.16415417        0.20829569        0.35126677        1.80000000        1.67225870
    14.86343873       37.22040518        0.21032777        0.35035639        1.80000000        1.67027583
    14.95088259       37.27665619        0.21235360        0.34944832        1.80000000        1.66829634
    15.03772285       37.33290720        0.21437340        0.34854244        1.80000000        1.66632021
    15.12397525       37.38915821        0.21638735        0.34763865        1.80000000        1.66434742
    15.20965485       37.44540922        0.21839565        0.34673687        1.80000000        1.66237796
    15.29477606       37.50166024        0.22039848        0.34583700        1.80000000        1.66041179
    15.37935272       37.55791125        0.22239601        0.34493895        1.80000000        1.65844890
    15.46339808       37.61416226        0.22438841        0.34404265        1.80000000        1.65648927
    15.54692488       37.67041327        0.22637584        0.34314800        1.80000000        1.65453287
    15.62994533       37.72666428        0.22835846        0.34225494        1.80000000        1.65257968
    15.71247118       37.78291529        0.23033640        0.34136339        1.80000000        1.65062969
    15.79451373       37.83916630        0.23230981        0.34047327        1.80000000        1.64868288
    15.87608382       37.89541732        0.23427883        0.33958452        1.80000000        1.64673922
    15.95719192       37.95166833        0.23624358        0.33869706        1.80000000        1.64479869
    16.03784808       38.00791934        0.23820419        0.33781084        1.80000000        1.64286128
    16.11806201       38.06417035        0.24016078        0.33692579        1.80000000        1.64092697
    16.19784305       38.12042136        0.24211346        0.33604186        1.80000000        1.63899573
    16.27720020       38.17667237        0.24406235        0.33515897        1.80000000        1.63706755
    16.35614216       38.23292338        0.24600755        0.33427708        1.80000000        1.63514241
    16.43467732       38.28917440        0.24794917        0.33339613        1.80000000        1.63322029
    16.51281379       38.34542541        0.24988730        0.33251607        1.80000000        1.63130117
    16.59055937       38.40167642        0.25182204        0.33163685        1.80000000        1.62938504
    16.66792165       38.45792743        0.25375348        0.33075841        1.80000000        1.62747187
    16.74490793       38.51417844        0.25568171        0.32988071        1.80000000        1.62556164
    16.82152527       38.57042945        0.25760681        0.32900370        1.80000000        1.62365435
    16.89778052       38.62668046        0.25952888        0.32812733        1.80000000        1.62174997
    16.97368030       38.68293148        0.26144798        0.32725157        1.80000000        1.61984848
    17.04923101       38.73918249        0.26336420        0.32637636        1.80000000        1.61794987
    17.12443887       38.79543350        0.26527760        0.32550166        1.80000000        1.61605412
    17.19930990       38.85168451        0.26718827        0.32462745        1.80000000        1.61416121
    17.27384990       38.90793552        0.26909626        0.32375366        1.80000000        1.61227113
    17.34806455       38.96418653        0.27100165        0.32288028        1.80000000        1.61038386
    17.42195933       39.02043754        0.27290451        0.32200725        1.80000000        1.60849939
    17.49553953       39.07668856        0.27480488        0.32113454        1.80000000        1.60661769
    17.56881034       39.13293957        0.27670284        0.32026212        1.80000000        1.60473875
    17.64177676       39.18919058        0.27859844        0.31938996        1.80000000        1.60286255
    17.71444365       39.24544159        0.28049175        0.31851801        1.80000000        1.60098908
    17.78681573       39.30169260        0.28238280        0.31764624        1.80000000        1.59911833
    17.85889760       39.35794361        0.28427166        0.31677463        1.80000000        1.59725027
    17.93069372       39.41419462        0.28615838        0.31590314        1.80000000        1.59538490
    18.00220842       39.47044564        0.28804301        0.31503174        1.80000000        1.59352219
    18.07344591       39.52669665        0.28992559        0.31416041        1.80000000        1.59166214
    18.14441030       39.58294766        0.29180618        0.31328910        1.80000000        1.58980472
    18.21510557       39.63919867        0.29368481        0.31241779        1.80000000        1.58794992
    18.28553562       39.69544968        0.29556153        0.31154646        1.80000000        1.58609773
    18.35570420       39.75170069        0.29743639        0.31067508        1.80000000        1.58424813
    18.42561502       39.80795170        0.29930942        0.30980362        1.80000000        1.58240111
    18.49527163       39.86420272        0.30118066        0.30893205        1.80000000        1.58055666
    18.56467753       39.92045373        0.30305016        0.30806035        1.80000000        1.57871475
    18.63383612       39.97670474        0.30491794        0.30718849        1.80000000        1.57687538
    18.70275072       40.03295575        0.30678405        0.30631645        1.80000000        1.57503853
    18.77142454       40.08920676        0.30864852        0.30544421        1.80000000        1.57320419
    18.83986073       40.14545777        0.31051139        0.30457173        1.80000000        1.57137234
    18.90806236       40.20170878        0.31237268        0.30369901        1.80000000        1.56954297
    18.97603242       40.25795980        0.31423243        0.30282601        1.80000000        1.56771608
    19.04377383       40.31421081        0.31609067        0.30195271        1.80000000        1.56589163
    19.11128943       40.37046182        0.31794743        0.30107910        1.80000000        1.56406962
    19.17858200       40.42671283        0.31980274        0.30020514        1.80000000        1.56225005
    19.24565425       40.48296384        0.32165663        0.29933082        1.80000000        1.56043288
    19.31250882       40.53921485        0.32350912        0.29845612        1.80000000        1.55861812
    19.37914831       40.59546586        0.32536025        0.29758102        1.80000000        1.55680575
    19.44557522       40.65171687        0.32721003        0.29670549        1.80000000        1.55499576
    19.51179203       40.70796789        0.32905849        0.29582952        1.80000000        1.55318813
    19.57780113       40.76421890        0.33090567        0.29495310        1.80000000        1.55138285
    19.64360489       40.82046991        0.33275157        0.29407619        1.80000000        1.54957991
    19.70920559       40.87672092        0.33459622        0.29319878        1.80000000        1.54777930
    19.77460548       40.93297193        0.33643965        0.29232086        1.80000000        1.54598100
    19.83980675       40.98922294        0.33828188        0.29144240        1.80000000        1.54418501
    19.90481155       41.04547395        0.34012292        0.29056339        1.80000000        1.54239131
    19.96962197       41.10172497        0.34196280        0.28968380        1.80000000        1.54059990
    20.03424007       41.15797598        0.34380154        0.28880364        1.80000000        1.53881075
    20.09866784       41.21422699        0.34563916        0.28792286        1.80000000        1.53702385
    20.16290725       41.27047800        0.34747567        0.28704147        1.80000000        1.53523921
    20.22696022       41.32672901        0.34931109        0.28615944        1.80000000        1.53345680
    20.29082863       41.38298002        0.35114544        0.28527675        1.80000000        1.53167661
    20.35451430       41.43923103        0.35297874        0.28439340        1.80000000        1.52989863
    20.41801905       41.49548205        0.35481101        0.28350936        1.80000000        1.52812286
    20.48134462       41.55173306        0.35664225        0.28262463        1.80000000        1.52634928
    20.54449273       41.60798407        0.35847249        0.28173917        1.80000000        1.52457787
    20.60746508       41.66423508        0.36030174        0.28085299        1.80000000        1.52280864
    20.67026332       41.72048609        0.36213001        0.27996606        1.80000000        1.52104157
    20.73288905       41.77673710        0.36395732        0.27907837        1.80000000        1.51927664
    20.79534387       41.83298811        0.36578368        0.27818991        1.80000000        1.51751386
    20.85762932       41.88923913        0.36760910        0.27730066        1.80000000        1.51575320
    20.91974691       41.94549014        0.36943360        0.27641060        1.80000000        1.51399466
    20.98169815       42.00174115        0.37125720        0.27551973        1.80000000        1.51223823
    21.04348448       42.05799216        0.37307989        0.27462803        1.80000000        1.51048389
    21.10510733       42.11424317        0.37490170        0.27373549        1.80000000        1.50873165
    21.16656811       42.17049418        0.37672263        0.27284209        1.80000000        1.50698148
    21.22786818       42.22674519        0.37854270        0.27194781        1.80000000        1.50523338
    21.28900888       42.28299621        0.38036191        0.27105266        1.80000000        1.50348734
    21.34999154       42.33924722        0.38218028        0.27015661        1.80000000        1.50174335
    21.41081745       42.39549823        0.38399782        0.26925965        1.80000000        1.50000140
    21.47148786       42.45174924        0.38581453        0.26836177        1.80000000        1.49826148
    21.53200402       42.50800025        0.38763042        0.26746295        1.80000000        1.49652359
    21.59236716       42.56425126        0.38944551        0.26656319        1.80000000        1.49478770
    21.65257847       42.62050227        0.39125980        0.26566247        1.80000000        1.49305382
    21.71263910       42.67675329        0.39307330        0.26476078        1.80000000        1.49132193
    21.77255022       42.73300430        0.39488602        0.26385811        1.80000000        1.48959203
    21.83231294       42.78925531        0.39669796        0.26295444        1.80000000        1.48786411
    21.89192838       42.84550632        0.39850914        0.26204977        1.80000000        1.48613815
    21.95139761       42.90175733        0.40031956        0.26114407        1.80000000        1.48441415
    22.01072170       42.95800834        0.40212923        0.26023735        1.80000000        1.48269211
    22.06990170       43.01425935        0.40393815        0.25932959        1.80000000        1.48097200
    22.12893861       43.07051037        0.40574633        0.25842078        1.80000000        1.47925383
    22.18783346       43.12676138        0.40755378        0.25751091        1.80000000        1.47753759
    22.24658722       43.18301239        0.40936050        0.25659996        1.80000000        1.47582326
    22.30520086       43.23926340        0.41116650        0.25568792        1.80000000        1.47411084
    22.36367533       43.29551441        0.41297179        0.25477479        1.80000000        1.47240033
    22.42201157       43.35176542        0.41477636        0.25386055        1.80000000        1.47069170
    22.48021048       43.40801643        0.41658023        0.25294520        1.80000000        1.46898496
    22.53827296       43.46426745        0.41838340        0.25202872        1.80000000        1.46728010
    22.59619990       43.52051846        0.42018587        0.25111110        1.80000000        1.46557711
    22.65399215       43.57676947        0.42198765        0.25019233        1.80000000        1.46387598
    22.71165058       43.63302048        0.42378874        0.24927240        1.80000000        1.46217670
    22.76917600       43.68927149        0.42558915        0.24835130        1.80000000        1.46047927
    22.82656925       43.74552250        0.42738888        0.24742903        1.80000000        1.45878368
    22.88383112       43.80177351        0.42918793        0.24650556        1.80000000        1.45708992
    22.94096240       43.85802452        0.43098631        0.24558090        1.80000000        1.45539798
