#  Theta paroi en deg Angle Choc en deg       Kp           Inverse Mach       Mach amont       Mach aval
     0.00000000       28.88752699        0.00000000        0.51690821        2.07000000
     1.96794646       28.88936036        0.00710387        0.51373373        2.07000000        2.06991329
     2.36095613       28.89192558        0.00965574        0.51259909        2.07000000        2.06979199
     2.78973091       28.89668631        0.01276511        0.51122053        2.07000000        2.06956690
     3.25508650       28.90510625        0.01649446        0.50957271        2.07000000        2.06916894
     3.73665070       28.91864908        0.02071525        0.50771498        2.07000000        2.06852919
     4.22213477       28.93877847        0.02531943        0.50569700        2.07000000        2.06757911
     4.70645458       28.96695811        0.03024286        0.50354864        2.07000000        2.06625066
     5.18834230       29.00465168        0.03545377        0.50128521        2.07000000        2.06447660
     5.66832344       29.05332286        0.04094135        0.49891278        2.07000000        2.06219076
     6.14772163       29.11443534        0.04670834        0.49643145        2.07000000        2.05932832
     6.54570788       29.17554781        0.05170716        0.49429015        2.07000000        2.05647439
     6.89083519       29.23666028        0.05619381        0.49237549        2.07000000        2.05362889
     7.19853094       29.29777276        0.06031074        0.49062446        2.07000000        2.05079173
     7.47815520       29.35888523        0.06414641        0.48899795        2.07000000        2.04796282
     7.73584957       29.41999770        0.06775993        0.48746981        2.07000000        2.04514209
     7.97587902       29.48111017        0.07119302        0.48602163        2.07000000        2.04232945
     8.20133565       29.54222265        0.07447632        0.48463988        2.07000000        2.03952482
     8.41453855       29.60333512        0.07763307        0.48331428        2.07000000        2.03672812
     8.61727524       29.66444759        0.08068140        0.48203683        2.07000000        2.03393927
     8.81095500       29.72556007        0.08363569        0.48080118        2.07000000        2.03115820
     8.99671013       29.78667254        0.08650762        0.47960218        2.07000000        2.02838483
     9.17546528       29.84778501        0.08930678        0.47843557        2.07000000        2.02561908
     9.34798596       29.90889749        0.09204117        0.47729784        2.07000000        2.02286088
     9.51491379       29.97000996        0.09471754        0.47618599        2.07000000        2.02011015
     9.67679223       30.03112243        0.09734161        0.47509749        2.07000000        2.01736683
     9.83408597       30.09223490        0.09991832        0.47403015        2.07000000        2.01463084
     9.98719574       30.15334738        0.10245196        0.47298209        2.07000000        2.01190211
    10.13646968       30.21445985        0.10494623        0.47195164        2.07000000        2.00918057
    10.28221238       30.27557232        0.10740443        0.47093736        2.07000000        2.00646615
    10.42469186       30.33668480        0.10982942        0.46993796        2.07000000        2.00375879
    10.56414547       30.39779727        0.11222379        0.46895230        2.07000000        2.00105841
    10.70078430       30.45890974        0.11458982        0.46797937        2.07000000        1.99836495
    10.83479713       30.52002222        0.11692957        0.46701825        2.07000000        1.99567834
    10.96635343       30.58113469        0.11924487        0.46606811        2.07000000        1.99299853
    11.09560599       30.64224716        0.12153740        0.46512821        2.07000000        1.99032544
    11.22269307       30.70335963        0.12380866        0.46419788        2.07000000        1.98765901
    11.34774021       30.76447211        0.12606005        0.46327649        2.07000000        1.98499918
    11.47086179       30.82558458        0.12829280        0.46236348        2.07000000        1.98234589
    11.59216234       30.88669705        0.13050806        0.46145834        2.07000000        1.97969908
    11.71173762       30.94780953        0.13270690        0.46056059        2.07000000        1.97705869
    11.82967565       31.00892200        0.13489027        0.45966980        2.07000000        1.97442465
    11.94605748       31.07003447        0.13705908        0.45878556        2.07000000        1.97179692
    12.06095796       31.13114695        0.13921414        0.45790749        2.07000000        1.96917542
    12.17444635       31.19225942        0.14135622        0.45703525        2.07000000        1.96656012
    12.28658689       31.25337189        0.14348602        0.45616853        2.07000000        1.96395094
    12.39743924       31.31448437        0.14560421        0.45530700        2.07000000        1.96134783
    12.50705898       31.37559684        0.14771140        0.45445040        2.07000000        1.95875074
    12.61549791       31.43670931        0.14980816        0.45359847        2.07000000        1.95615962
    12.72280443       31.49782178        0.15189502        0.45275095        2.07000000        1.95357441
    12.82902386       31.55893426        0.15397248        0.45190762        2.07000000        1.95099505
    12.93419864       31.62004673        0.15604101        0.45106826        2.07000000        1.94842150
    13.03836860       31.68115920        0.15810105        0.45023266        2.07000000        1.94585370
    13.14157121       31.74227168        0.16015301        0.44940064        2.07000000        1.94329160
    13.24384169       31.80338415        0.16219728        0.44857202        2.07000000        1.94073515
    13.34521325       31.86449662        0.16423422        0.44774661        2.07000000        1.93818431
    13.44571725       31.92560910        0.16626417        0.44692426        2.07000000        1.93563902
    13.54538329       31.98672157        0.16828746        0.44610482        2.07000000        1.93309923
    13.64423936       32.04783404        0.17030440        0.44528814        2.07000000        1.93056490
    13.74231197       32.10894651        0.17231527        0.44447408        2.07000000        1.92803597
    13.83962623       32.17005899        0.17432035        0.44366252        2.07000000        1.92551241
    13.93620599       32.23117146        0.17631990        0.44285332        2.07000000        1.92299416
    14.03207389       32.29228393        0.17831416        0.44204636        2.07000000        1.92048118
    14.12725142       32.35339641        0.18030337        0.44124154        2.07000000        1.91797342
    14.22175908       32.41450888        0.18228775        0.44043875        2.07000000        1.91547084
    14.31561633       32.47562135        0.18426750        0.43963788        2.07000000        1.91297340
    14.40884177       32.53673383        0.18624284        0.43883884        2.07000000        1.91048105
    14.50145311       32.59784630        0.18821395        0.43804152        2.07000000        1.90799374
    14.59346725       32.65895877        0.19018101        0.43724584        2.07000000        1.90551144
    14.68490036       32.72007124        0.19214419        0.43645172        2.07000000        1.90303411
    14.77576788       32.78118372        0.19410367        0.43565907        2.07000000        1.90056170
    14.86608459       32.84229619        0.19605959        0.43486780        2.07000000        1.89809416
    14.95586462       32.90340866        0.19801210        0.43407785        2.07000000        1.89563147
    15.04512153       32.96452114        0.19996136        0.43328914        2.07000000        1.89317357
    15.13386831       33.02563361        0.20190749        0.43250160        2.07000000        1.89072044
    15.22211741       33.08674608        0.20385063        0.43171516        2.07000000        1.88827203
    15.30988078       33.14785856        0.20579090        0.43092976        2.07000000        1.88582830
    15.39716992       33.20897103        0.20772843        0.43014533        2.07000000        1.88338921
    15.48399584       33.27008350        0.20966332        0.42936182        2.07000000        1.88095473
    15.57036917       33.33119597        0.21159569        0.42857916        2.07000000        1.87852481
    15.65630009       33.39230845        0.21352564        0.42779729        2.07000000        1.87609943
    15.74179844       33.45342092        0.21545327        0.42701617        2.07000000        1.87367855
    15.82687366       33.51453339        0.21737869        0.42623574        2.07000000        1.87126212
    15.91153485       33.57564587        0.21930198        0.42545594        2.07000000        1.86885011
    15.99579081       33.63675834        0.22122323        0.42467674        2.07000000        1.86644250
    16.07965000       33.69787081        0.22314253        0.42389807        2.07000000        1.86403923
    16.16312058       33.75898329        0.22505996        0.42311990        2.07000000        1.86164028
    16.24621043       33.82009576        0.22697559        0.42234219        2.07000000        1.85924562
    16.32892717       33.88120823        0.22888952        0.42156487        2.07000000        1.85685521
    16.41127815       33.94232070        0.23080180        0.42078793        2.07000000        1.85446902
    16.49327048       34.00343318        0.23271250        0.42001130        2.07000000        1.85208701
    16.57491103       34.06454565        0.23462171        0.41923496        2.07000000        1.84970915
    16.65620643       34.12565812        0.23652947        0.41845887        2.07000000        1.84733541
    16.73716313       34.18677060        0.23843586        0.41768298        2.07000000        1.84496576
    16.81778733       34.24788307        0.24034093        0.41690726        2.07000000        1.84260017
    16.89808507       34.30899554        0.24224474        0.41613168        2.07000000        1.84023860
    16.97806218       34.37010802        0.24414735        0.41535620        2.07000000        1.83788103
    17.05772433       34.43122049        0.24604880        0.41458079        2.07000000        1.83552742
    17.13707698       34.49233296        0.24794916        0.41380541        2.07000000        1.83317774
    17.21612544       34.55344543        0.24984847        0.41303003        2.07000000        1.83083197
    17.29487489       34.61455791        0.25174678        0.41225463        2.07000000        1.82849008
    17.37333030       34.67567038        0.25364414        0.41147917        2.07000000        1.82615203
    17.45149655       34.73678285        0.25554058        0.41070362        2.07000000        1.82381780
    17.52937833       34.79789533        0.25743616        0.40992796        2.07000000        1.82148736
    17.60698023       34.85900780        0.25933091        0.40915215        2.07000000        1.81916068
    17.68430669       34.92012027        0.26122488        0.40837616        2.07000000        1.81683773
    17.76136202       34.98123275        0.26311810        0.40759998        2.07000000        1.81451849
    17.83815043       35.04234522        0.26501061        0.40682357        2.07000000        1.81220293
    17.91467599       35.10345769        0.26690244        0.40604692        2.07000000        1.80989102
    17.99094267       35.16457016        0.26879364        0.40526998        2.07000000        1.80758273
    18.06695433       35.22568264        0.27068423        0.40449275        2.07000000        1.80527805
    18.14271472       35.28679511        0.27257424        0.40371519        2.07000000        1.80297694
    18.21822751       35.34790758        0.27446372        0.40293728        2.07000000        1.80067937
    18.29349625       35.40902006        0.27635267        0.40215901        2.07000000        1.79838533
    18.36852439       35.47013253        0.27824115        0.40138034        2.07000000        1.79609479
    18.44331530       35.53124500        0.28012917        0.40060125        2.07000000        1.79380772
    18.51787230       35.59235748        0.28201675        0.39982173        2.07000000        1.79152410
    18.59219856       35.65346995        0.28390394        0.39904175        2.07000000        1.78924391
    18.66629720       35.71458242        0.28579074        0.39826129        2.07000000        1.78696711
    18.74017128       35.77569489        0.28767719        0.39748033        2.07000000        1.78469369
    18.81382374       35.83680737        0.28956331        0.39669885        2.07000000        1.78242362
    18.88725750       35.89791984        0.29144912        0.39591683        2.07000000        1.78015689
    18.96047536       35.95903231        0.29333464        0.39513426        2.07000000        1.77789346
    19.03348007       36.02014479        0.29521989        0.39435111        2.07000000        1.77563331
    19.10627431       36.08125726        0.29710490        0.39356736        2.07000000        1.77337643
    19.17886072       36.14236973        0.29898968        0.39278300        2.07000000        1.77112279
    19.25124184       36.20348221        0.30087425        0.39199801        2.07000000        1.76887237
    19.32342017       36.26459468        0.30275863        0.39121236        2.07000000        1.76662514
    19.39539815       36.32570715        0.30464283        0.39042605        2.07000000        1.76438109
    19.46717816       36.38681963        0.30652688        0.38963906        2.07000000        1.76214019
    19.53876251       36.44793210        0.30841079        0.38885137        2.07000000        1.75990243
    19.61015349       36.50904457        0.31029457        0.38806296        2.07000000        1.75766777
    19.68135332       36.57015704        0.31217825        0.38727381        2.07000000        1.75543621
    19.75236415       36.63126952        0.31406182        0.38648392        2.07000000        1.75320772
    19.82318812       36.69238199        0.31594532        0.38569326        2.07000000        1.75098229
    19.89382730       36.75349446        0.31782875        0.38490182        2.07000000        1.74875988
    19.96428370       36.81460694        0.31971212        0.38410959        2.07000000        1.74654049
    20.03455932       36.87571941        0.32159544        0.38331654        2.07000000        1.74432409
    20.10465608       36.93683188        0.32347873        0.38252267        2.07000000        1.74211066
    20.17457590       36.99794436        0.32536201        0.38172796        2.07000000        1.73990019
    20.24432061       37.05905683        0.32724527        0.38093239        2.07000000        1.73769265
    20.31389204       37.12016930        0.32912853        0.38013595        2.07000000        1.73548803
    20.38329196       37.18128177        0.33101181        0.37933863        2.07000000        1.73328631
    20.45252212       37.24239425        0.33289510        0.37854042        2.07000000        1.73108747
    20.52158420       37.30350672        0.33477843        0.37774129        2.07000000        1.72889150
    20.59047987       37.36461919        0.33666179        0.37694123        2.07000000        1.72669837
    20.65921078       37.42573167        0.33854519        0.37614024        2.07000000        1.72450806
    20.72777850       37.48684414        0.34042866        0.37533830        2.07000000        1.72232057
    20.79618461       37.54795661        0.34231218        0.37453539        2.07000000        1.72013587
    20.86443064       37.60906909        0.34419578        0.37373151        2.07000000        1.71795395
    20.93251809       37.67018156        0.34607945        0.37292663        2.07000000        1.71577479
    21.00044842       37.73129403        0.34796320        0.37212076        2.07000000        1.71359836
    21.06822308       37.79240650        0.34984704        0.37131387        2.07000000        1.71142467
    21.13584348       37.85351898        0.35173098        0.37050595        2.07000000        1.70925369
    21.20331100       37.91463145        0.35361502        0.36969699        2.07000000        1.70708539
    21.27062699       37.97574392        0.35549917        0.36888698        2.07000000        1.70491978
    21.33779279       38.03685640        0.35738343        0.36807590        2.07000000        1.70275683
    21.40480969       38.09796887        0.35926780        0.36726375        2.07000000        1.70059653
    21.47167898       38.15908134        0.36115230        0.36645052        2.07000000        1.69843886
    21.53840190       38.22019382        0.36303692        0.36563618        2.07000000        1.69628380
    21.60497968       38.28130629        0.36492167        0.36482073        2.07000000        1.69413134
    21.67141351       38.34241876        0.36680655        0.36400416        2.07000000        1.69198148
    21.73770460       38.40353123        0.36869157        0.36318646        2.07000000        1.68983418
    21.80385409       38.46464371        0.37057673        0.36236762        2.07000000        1.68768944
    21.86986311       38.52575618        0.37246204        0.36154762        2.07000000        1.68554724
    21.93573279       38.58686865        0.37434749        0.36072645        2.07000000        1.68340757
    22.00146421       38.64798113        0.37623308        0.35990411        2.07000000        1.68127041
    22.06705843       38.70909360        0.37811883        0.35908057        2.07000000        1.67913576
    22.13251654       38.77020607        0.38000474        0.35825584        2.07000000        1.67700359
    22.19783954       38.83131855        0.38189079        0.35742990        2.07000000        1.67487389
    22.26302845       38.89243102        0.38377701        0.35660274        2.07000000        1.67274665
    22.32808426       38.95354349        0.38566338        0.35577435        2.07000000        1.67062186
    22.39300796       39.01465596        0.38754991        0.35494472        2.07000000        1.66849950
    22.45780050       39.07576844        0.38943660        0.35411384        2.07000000        1.66637956
    22.52246282       39.13688091        0.39132346        0.35328170        2.07000000        1.66426202
    22.58699584       39.19799338        0.39321048        0.35244828        2.07000000        1.66214688
    22.65140047       39.25910586        0.39509766        0.35161359        2.07000000        1.66003412
    22.71567760       39.32021833        0.39698500        0.35077760        2.07000000        1.65792373
    22.77982810       39.38133080        0.39887251        0.34994031        2.07000000        1.65581570
    22.84385283       39.44244328        0.40076018        0.34910172        2.07000000        1.65371000
    22.90775263       39.50355575        0.40264802        0.34826179        2.07000000        1.65160664
    22.97152833       39.56466822        0.40453602        0.34742054        2.07000000        1.64950560
    23.03518074       39.62578069        0.40642419        0.34657795        2.07000000        1.64740687
    23.09871065       39.68689317        0.40831251        0.34573401        2.07000000        1.64531043
    23.16211886       39.74800564        0.41020100        0.34488871        2.07000000        1.64321628
    23.22540613       39.80911811        0.41208966        0.34404204        2.07000000        1.64112440
    23.28857321       39.87023059        0.41397847        0.34319399        2.07000000        1.63903478
