#  Theta paroi en deg Angle Choc en deg       Kp           Inverse Mach       Mach amont       Mach aval
     0.00000000        4.09604376        0.00000000        0.92857143       14.00000000
     0.54084529        4.09862088        0.00041620        0.92798784       14.00000000       13.99699566
     0.65670786        4.10222672        0.00057231        0.92777580       14.00000000       13.99279731
     0.78079299        4.10891875        0.00075901        0.92752685       14.00000000       13.98502180
     0.91646481        4.12075440        0.00098475        0.92723228       14.00000000       13.97132077
     1.06058988        4.13979114        0.00124811        0.92689708       14.00000000       13.94941800
     1.21196852        4.16808642        0.00154996        0.92652344       14.00000000       13.91716133
     1.37111657        4.20769769        0.00189459        0.92610969       14.00000000       13.87258284
     1.53941911        4.26068240        0.00228914        0.92565146       14.00000000       13.81395814
     1.71864501        4.32909801        0.00274324        0.92514255       14.00000000       13.73985360
     1.91071352        4.41500197        0.00326889        0.92457542       14.00000000       13.64915079
     2.08100037        4.50090592        0.00376892        0.92405512       14.00000000       13.56082752
     2.23712186        4.58680988        0.00425565        0.92356438       14.00000000       13.47466456
     2.38318669        4.67271383        0.00473573        0.92309373       14.00000000       13.39046834
     2.52168528        4.75861779        0.00521316        0.92263735       14.00000000       13.30806756
     2.65425099        4.84452175        0.00569054        0.92219139       14.00000000       13.22731031
     2.78201790        4.93042570        0.00616963        0.92175315       14.00000000       13.14806166
     2.90580867        5.01632966        0.00665169        0.92132067       14.00000000       13.07020153
     3.02624080        5.10223362        0.00713764        0.92089244       14.00000000       12.99362289
     3.14379107        5.18813757        0.00762818        0.92046734       14.00000000       12.91823022
     3.25883586        5.27404153        0.00812384        0.92004444       14.00000000       12.84393815
     3.37167841        5.35994548        0.00862505        0.91962301       14.00000000       12.77067031
     3.48256696        5.44584944        0.00913212        0.91920246       14.00000000       12.69835827
     3.59170764        5.53175340        0.00964533        0.91878229       14.00000000       12.62694070
     3.69927388        5.61765735        0.01016491        0.91836210       14.00000000       12.55636255
     3.80541297        5.70356131        0.01069101        0.91794153       14.00000000       12.48657438
     3.91025149        5.78946527        0.01122380        0.91752030       14.00000000       12.41753175
     4.01389896        5.87536922        0.01176339        0.91709815       14.00000000       12.34919471
     4.11645092        5.96127318        0.01230988        0.91667488       14.00000000       12.28152729
     4.21799139        6.04717713        0.01286337        0.91625030       14.00000000       12.21449711
     4.31859462        6.13308109        0.01342393        0.91582424       14.00000000       12.14807502
     4.41832659        6.21898505        0.01399161        0.91539659       14.00000000       12.08223473
     4.51724635        6.30488900        0.01456648        0.91496721       14.00000000       12.01695255
     4.61540690        6.39079296        0.01514857        0.91453600       14.00000000       11.95220710
     4.71285603        6.47669692        0.01573794        0.91410288       14.00000000       11.88797913
     4.80963705        6.56260087        0.01633460        0.91366778       14.00000000       11.82425123
     4.90578935        6.64850483        0.01693859        0.91323062       14.00000000       11.76100770
     5.00134879        6.73440878        0.01754993        0.91279134       14.00000000       11.69823437
     5.09634824        6.82031274        0.01816865        0.91234991       14.00000000       11.63591843
     5.19081787        6.90621670        0.01879477        0.91190627       14.00000000       11.57404832
     5.28478538        6.99212065        0.01942829        0.91146040       14.00000000       11.51261359
     5.37827639        7.07802461        0.02006924        0.91101226       14.00000000       11.45160478
     5.47131458        7.16392857        0.02071762        0.91056182       14.00000000       11.39101333
     5.56392187        7.24983252        0.02137344        0.91010907       14.00000000       11.33083152
     5.65611868        7.33573648        0.02203671        0.90965400       14.00000000       11.27105232
     5.74792394        7.42164043        0.02270744        0.90919658       14.00000000       11.21166940
     5.83935535        7.50754439        0.02338564        0.90873681       14.00000000       11.15267698
     5.93042941        7.59344835        0.02407130        0.90827468       14.00000000       11.09406983
     6.02116163        7.67935230        0.02476443        0.90781018       14.00000000       11.03584319
     6.11156644        7.76525626        0.02546503        0.90734332       14.00000000       10.97799273
     6.20165745        7.85116022        0.02617310        0.90687410       14.00000000       10.92051450
     6.29144743        7.93706417        0.02688865        0.90640251       14.00000000       10.86340487
     6.38094839        8.02296813        0.02761168        0.90592857       14.00000000       10.80666055
     6.47017169        8.10887208        0.02834218        0.90545226       14.00000000       10.75027848
     6.55912798        8.19477604        0.02908015        0.90497361       14.00000000       10.69425588
     6.64782735        8.28068000        0.02982559        0.90449262       14.00000000       10.63859015
     6.73627936        8.36658395        0.03057850        0.90400929       14.00000000       10.58327890
     6.82449301        8.45248791        0.03133888        0.90352364       14.00000000       10.52831989
     6.91247689        8.53839187        0.03210672        0.90303568       14.00000000       10.47371103
     7.00023910        8.62429582        0.03288202        0.90254542       14.00000000       10.41945036
     7.08778735        8.71019978        0.03366478        0.90205286       14.00000000       10.36553604
     7.17512891        8.79610373        0.03445499        0.90155803       14.00000000       10.31196630
     7.26227080        8.88200769        0.03525265        0.90106093       14.00000000       10.25873948
     7.34921960        8.96791165        0.03605775        0.90056159       14.00000000       10.20585398
     7.43598162        9.05381560        0.03687030        0.90006000       14.00000000       10.15330826
     7.52256287        9.13971956        0.03769028        0.89955619       14.00000000       10.10110081
     7.60896910        9.22562352        0.03851768        0.89905017       14.00000000       10.04923020
     7.69520575        9.31152747        0.03935252        0.89854196       14.00000000        9.99769501
     7.78127806        9.39743143        0.04019477        0.89803157       14.00000000        9.94649384
     7.86719102        9.48333538        0.04104443        0.89751901       14.00000000        9.89562532
     7.95294941        9.56923934        0.04190150        0.89700431       14.00000000        9.84508810
     8.03855779        9.65514330        0.04276597        0.89648747       14.00000000        9.79488082
     8.12402052        9.74104725        0.04363783        0.89596852       14.00000000        9.74500215
     8.20934184        9.82695121        0.04451708        0.89544746       14.00000000        9.69545075
     8.29452571        9.91285517        0.04540372        0.89492431       14.00000000        9.64622526
     8.37957601        9.99875912        0.04629772        0.89439910       14.00000000        9.59732435
     8.46449643       10.08466308        0.04719910        0.89387183       14.00000000        9.54874665
     8.54929052       10.17056703        0.04810783        0.89334251       14.00000000        9.50049080
     8.63396168       10.25647099        0.04902392        0.89281118       14.00000000        9.45255542
     8.71851318       10.34237495        0.04994735        0.89227783       14.00000000        9.40493911
     8.80294819       10.42827890        0.05087813        0.89174249       14.00000000        9.35764049
     8.88726970       10.51418286        0.05181623        0.89120518       14.00000000        9.31065811
     8.97148067       10.60008682        0.05276166        0.89066589       14.00000000        9.26399055
     9.05558386       10.68599077        0.05371440        0.89012466       14.00000000        9.21763635
     9.13958199       10.77189473        0.05467445        0.88958150       14.00000000        9.17159403
     9.22347765       10.85779868        0.05564181        0.88903642       14.00000000        9.12586211
     9.30727336       10.94370264        0.05661645        0.88848944       14.00000000        9.08043907
     9.39097151       11.02960660        0.05759838        0.88794056       14.00000000        9.03532339
     9.47457445       11.11551055        0.05858758        0.88738982       14.00000000        8.99051352
     9.55808444       11.20141451        0.05958405        0.88683721       14.00000000        8.94600790
     9.64150361       11.28731847        0.06058778        0.88628275       14.00000000        8.90180494
     9.72483409       11.37322242        0.06159876        0.88572646       14.00000000        8.85790306
     9.80807788       11.45912638        0.06261698        0.88516836       14.00000000        8.81430062
     9.89123695       11.54503033        0.06364243        0.88460845       14.00000000        8.77099600
     9.97431317       11.63093429        0.06467511        0.88404675       14.00000000        8.72798755
    10.05730837       11.71683825        0.06571500        0.88348327       14.00000000        8.68527360
    10.14022432       11.80274220        0.06676210        0.88291802       14.00000000        8.64285248
    10.22306272       11.88864616        0.06781640        0.88235103       14.00000000        8.60072248
    10.30582521       11.97455012        0.06887788        0.88178229       14.00000000        8.55888190
    10.38851341       12.06045407        0.06994655        0.88121183       14.00000000        8.51732902
    10.47112885       12.14635803        0.07102238        0.88063965       14.00000000        8.47606210
    10.55367304       12.23226198        0.07210537        0.88006577       14.00000000        8.43507940
    10.63614740       12.31816594        0.07319552        0.87949020       14.00000000        8.39437916
    10.71855338       12.40406990        0.07429280        0.87891295       14.00000000        8.35395961
    10.80089229       12.48997385        0.07539722        0.87833403       14.00000000        8.31381897
    10.88316549       12.57587781        0.07650876        0.87775346       14.00000000        8.27395546
    10.96537424       12.66178177        0.07762741        0.87717124       14.00000000        8.23436728
    11.04751977       12.74768572        0.07875317        0.87658739       14.00000000        8.19505263
    11.12960328       12.83358968        0.07988601        0.87600192       14.00000000        8.15600970
    11.21162597       12.91949363        0.08102594        0.87541484       14.00000000        8.11723668
    11.29358894       13.00539759        0.08217295        0.87482615       14.00000000        8.07873173
    11.37549330       13.09130155        0.08332701        0.87423587       14.00000000        8.04049305
    11.45734010       13.17720550        0.08448813        0.87364402       14.00000000        8.00251878
    11.53913039       13.26310946        0.08565629        0.87305059       14.00000000        7.96480711
    11.62086517       13.34901342        0.08683148        0.87245560       14.00000000        7.92735620
    11.70254542       13.43491737        0.08801369        0.87185905       14.00000000        7.89016420
    11.78417207       13.52082133        0.08920292        0.87126097       14.00000000        7.85322928
    11.86574605       13.60672528        0.09039914        0.87066135       14.00000000        7.81654959
    11.94726827       13.69262924        0.09160235        0.87006021       14.00000000        7.78012328
    12.02873957       13.77853320        0.09281255        0.86945755       14.00000000        7.74394853
    12.11016082       13.86443715        0.09402971        0.86885338       14.00000000        7.70802348
    12.19153282       13.95034111        0.09525383        0.86824772       14.00000000        7.67234630
    12.27285638       14.03624507        0.09648489        0.86764057       14.00000000        7.63691515
    12.35413227       14.12214902        0.09772289        0.86703193       14.00000000        7.60172818
    12.43536127       14.20805298        0.09896782        0.86642182       14.00000000        7.56678357
    12.51654408       14.29395693        0.10021966        0.86581025       14.00000000        7.53207948
    12.59768143       14.37986089        0.10147840        0.86519722       14.00000000        7.49761409
    12.67877401       14.46576485        0.10274403        0.86458273       14.00000000        7.46338558
    12.75982251       14.55166880        0.10401654        0.86396680       14.00000000        7.42939211
    12.84082759       14.63757276        0.10529592        0.86334944       14.00000000        7.39563189
    12.92178987       14.72347672        0.10658216        0.86273064       14.00000000        7.36210310
    13.00270998       14.80938067        0.10787525        0.86211043       14.00000000        7.32880394
    13.08358854       14.89528463        0.10917516        0.86148879       14.00000000        7.29573261
    13.16442613       14.98118858        0.11048190        0.86086575       14.00000000        7.26288732
    13.24522334       15.06709254        0.11179546        0.86024131       14.00000000        7.23026628
    13.32598071       15.15299650        0.11311581        0.85961546       14.00000000        7.19786773
    13.40669882       15.23890045        0.11444295        0.85898823       14.00000000        7.16568988
    13.48737817       15.32480441        0.11577686        0.85835961       14.00000000        7.13373097
    13.56801929       15.41070837        0.11711754        0.85772961       14.00000000        7.10198926
    13.64862268       15.49661232        0.11846497        0.85709824       14.00000000        7.07046299
    13.72918886       15.58251628        0.11981914        0.85646550       14.00000000        7.03915043
    13.80971828       15.66842023        0.12118003        0.85583140       14.00000000        7.00804985
    13.89021141       15.75432419        0.12254764        0.85519594       14.00000000        6.97715952
    13.97066873       15.84022815        0.12392196        0.85455913       14.00000000        6.94647773
    14.05109065       15.92613210        0.12530296        0.85392097       14.00000000        6.91600279
    14.13147764       16.01203606        0.12669065        0.85328147       14.00000000        6.88573299
    14.21183009       16.09794001        0.12808500        0.85264062       14.00000000        6.85566666
    14.29214844       16.18384397        0.12948600        0.85199845       14.00000000        6.82580212
    14.37243308       16.26974793        0.13089364        0.85135495       14.00000000        6.79613771
    14.45268439       16.35565188        0.13230791        0.85071012       14.00000000        6.76667177
    14.53290278       16.44155584        0.13372880        0.85006397       14.00000000        6.73740266
    14.61308859       16.52745980        0.13515629        0.84941651       14.00000000        6.70832875
    14.69324221       16.61336375        0.13659038        0.84876773       14.00000000        6.67944842
    14.77336398       16.69926771        0.13803103        0.84811764       14.00000000        6.65076004
    14.85345426       16.78517166        0.13947826        0.84746625       14.00000000        6.62226203
    14.93351337       16.87107562        0.14093203        0.84681356       14.00000000        6.59395279
    15.01354165       16.95697958        0.14239234        0.84615957       14.00000000        6.56583073
    15.09353942       17.04288353        0.14385918        0.84550428       14.00000000        6.53789430
    15.17350699       17.12878749        0.14533253        0.84484770       14.00000000        6.51014194
    15.25344466       17.21469145        0.14681238        0.84418983       14.00000000        6.48257209
    15.33335275       17.30059540        0.14829871        0.84353068       14.00000000        6.45518322
    15.41323153       17.38649936        0.14979152        0.84287024       14.00000000        6.42797381
    15.49308129       17.47240331        0.15129079        0.84220853       14.00000000        6.40094234
    15.57290230       17.55830727        0.15279650        0.84154554       14.00000000        6.37408732
    15.65269485       17.64421123        0.15430864        0.84088127       14.00000000        6.34740725
    15.73245919       17.73011518        0.15582720        0.84021573       14.00000000        6.32090065
    15.81219557       17.81601914        0.15735217        0.83954892       14.00000000        6.29456605
    15.89190425       17.90192310        0.15888353        0.83888084       14.00000000        6.26840201
    15.97158549       17.98782705        0.16042126        0.83821149       14.00000000        6.24240706
    16.05123951       18.07373101        0.16196536        0.83754088       14.00000000        6.21657979
    16.13086654       18.15963496        0.16351581        0.83686902       14.00000000        6.19091877
    16.21046681       18.24553892        0.16507259        0.83619589       14.00000000        6.16542258
    16.29004056       18.33144288        0.16663570        0.83552150       14.00000000        6.14008983
    16.36958799       18.41734683        0.16820511        0.83484585       14.00000000        6.11491913
    16.44910931       18.50325079        0.16978082        0.83416895       14.00000000        6.08990911
    16.52860474       18.58915475        0.17136280        0.83349080       14.00000000        6.06505839
    16.60807446       18.67505870        0.17295106        0.83281139       14.00000000        6.04036562
    16.68751869       18.76096266        0.17454556        0.83213074       14.00000000        6.01582947
    16.76693760       18.84686661        0.17614630        0.83144883       14.00000000        5.99144860
    16.84633140       18.93277057        0.17775326        0.83076568       14.00000000        5.96722169
    16.92570025       19.01867453        0.17936643        0.83008127       14.00000000        5.94314742
    17.00504434       19.10457848        0.18098579        0.82939562       14.00000000        5.91922452
    17.08436384       19.19048244        0.18261134        0.82870873       14.00000000        5.89545168
    17.16365892       19.27638640        0.18424304        0.82802059       14.00000000        5.87182763
    17.24292975       19.36229035        0.18588090        0.82733120       14.00000000        5.84835110
    17.32217647       19.44819431        0.18752489        0.82664058       14.00000000        5.82502086
    17.40139927       19.53409826        0.18917500        0.82594870       14.00000000        5.80183564
