#  Theta paroi en deg Angle Choc en deg       Kp           Inverse Mach       Mach amont       Mach aval
     0.00000000       21.40533667        0.00000000        0.63503650        2.74000000
     1.69330760       21.40739451        0.00495018        0.63279337        2.74000000        2.73986060
     2.04269556       21.41027380        0.00677439        0.63197492        2.74000000        2.73966558
     2.41868903       21.41561740        0.00896704        0.63099683        2.74000000        2.73930377
     2.82436144       21.42506823        0.01157904        0.62983958        2.74000000        2.73866418
     3.24346334       21.44026914        0.01452755        0.62854333        2.74000000        2.73763636
     3.66644654       21.46286304        0.01774574        0.62714043        2.74000000        2.73611070
     4.08975462       21.49449280        0.02119797        0.62564892        2.74000000        2.73397897
     4.51296913       21.53680131        0.02487139        0.62407665        2.74000000        2.73113490
     4.93711944       21.59143145        0.02876797        0.62242502        2.74000000        2.72747492
     5.36385994       21.66002612        0.03289948        0.62069135        2.74000000        2.72289886
     5.72079227       21.72862078        0.03651424        0.61918884        2.74000000        2.71834418
     6.03243854       21.79721544        0.03978695        0.61783963        2.74000000        2.71381054
     6.31203537       21.86581011        0.04281451        0.61660062        2.74000000        2.70929761
     6.56760812       21.93440477        0.04565689        0.61544516        2.74000000        2.70480507
     6.80441986       22.00299943        0.04835408        0.61435546        2.74000000        2.70033260
     7.02612387       22.07159410        0.05093422        0.61331904        2.74000000        2.69587990
     7.23536789       22.14018876        0.05341794        0.61232673        2.74000000        2.69144666
     7.43413713       22.20878342        0.05582087        0.61137159        2.74000000        2.68703258
     7.62396134       22.27737809        0.05815513        0.61044823        2.74000000        2.68263737
     7.80604629       22.34597275        0.06043037        0.60955235        2.74000000        2.67826074
     7.98136060       22.41456741        0.06265437        0.60868050        2.74000000        2.67390242
     8.15069500       22.48316208        0.06483354        0.60782982        2.74000000        2.66956213
     8.31470407       22.55175674        0.06697318        0.60699794        2.74000000        2.66523959
     8.47393635       22.62035140        0.06907778        0.60618287        2.74000000        2.66093454
     8.62885634       22.68894607        0.07115113        0.60538289        2.74000000        2.65664673
     8.77986120       22.75754073        0.07319650        0.60459656        2.74000000        2.65237590
     8.92729330       22.82613539        0.07521671        0.60382260        2.74000000        2.64812179
     9.07145011       22.89473006        0.07721421        0.60305991        2.74000000        2.64388417
     9.21259175       22.96332472        0.07919116        0.60230752        2.74000000        2.63966279
     9.35094719       23.03191938        0.08114944        0.60156457        2.74000000        2.63545742
     9.48671907       23.10051405        0.08309075        0.60083030        2.74000000        2.63126783
     9.62008765       23.16910871        0.08501656        0.60010404        2.74000000        2.62709378
     9.75121409       23.23770337        0.08692823        0.59938518        2.74000000        2.62293506
     9.88024301       23.30629804        0.08882695        0.59867315        2.74000000        2.61879144
    10.00730486       23.37489270        0.09071381        0.59796748        2.74000000        2.61466272
    10.13251759       23.44348736        0.09258977        0.59726771        2.74000000        2.61054867
    10.25598836       23.51208203        0.09445574        0.59657342        2.74000000        2.60644911
    10.37781473       23.58067669        0.09631252        0.59588425        2.74000000        2.60236381
    10.49808587       23.64927135        0.09816085        0.59519985        2.74000000        2.59829258
    10.61688347       23.71786602        0.10000140        0.59451990        2.74000000        2.59423524
    10.73428260       23.78646068        0.10183479        0.59384412        2.74000000        2.59019157
    10.85035240       23.85505534        0.10366160        0.59317223        2.74000000        2.58616141
    10.96515668       23.92365001        0.10548235        0.59250399        2.74000000        2.58214455
    11.07875450       23.99224467        0.10729752        0.59183916        2.74000000        2.57814083
    11.19120064       24.06083933        0.10910756        0.59117754        2.74000000        2.57415005
    11.30254597       24.12943400        0.11091289        0.59051891        2.74000000        2.57017205
    11.41283787       24.19802866        0.11271390        0.58986310        2.74000000        2.56620666
    11.52212050       24.26662332        0.11451093        0.58920994        2.74000000        2.56225370
    11.63043514       24.33521799        0.11630434        0.58855924        2.74000000        2.55831301
    11.73782038       24.40381265        0.11809442        0.58791087        2.74000000        2.55438443
    11.84431244       24.47240731        0.11988147        0.58726468        2.74000000        2.55046779
    11.94994526       24.54100198        0.12166576        0.58662053        2.74000000        2.54656294
    12.05475077       24.60959664        0.12344755        0.58597830        2.74000000        2.54266972
    12.15875901       24.67819130        0.12522708        0.58533786        2.74000000        2.53878799
    12.26199828       24.74678597        0.12700456        0.58469910        2.74000000        2.53491759
    12.36449532       24.81538063        0.12878022        0.58406192        2.74000000        2.53105839
    12.46627535       24.88397529        0.13055424        0.58342620        2.74000000        2.52721022
    12.56736224       24.95256996        0.13232682        0.58279186        2.74000000        2.52337296
    12.66777860       25.02116462        0.13409813        0.58215879        2.74000000        2.51954646
    12.76754583       25.08975928        0.13586833        0.58152692        2.74000000        2.51573059
    12.86668428       25.15835395        0.13763759        0.58089616        2.74000000        2.51192521
    12.96521323       25.22694861        0.13940604        0.58026643        2.74000000        2.50813019
    13.06315103       25.29554327        0.14117384        0.57963765        2.74000000        2.50434541
    13.16051515       25.36413794        0.14294110        0.57900975        2.74000000        2.50057073
    13.25732221       25.43273260        0.14470797        0.57838267        2.74000000        2.49680603
    13.35358806       25.50132726        0.14647454        0.57775633        2.74000000        2.49305120
    13.44932781       25.56992193        0.14824094        0.57713068        2.74000000        2.48930609
    13.54455588       25.63851659        0.15000727        0.57650564        2.74000000        2.48557061
    13.63928609       25.70711125        0.15177364        0.57588117        2.74000000        2.48184463
    13.73353160       25.77570592        0.15354013        0.57525721        2.74000000        2.47812803
    13.82730502       25.84430058        0.15530684        0.57463371        2.74000000        2.47442072
    13.92061844       25.91289524        0.15707386        0.57401061        2.74000000        2.47072256
    14.01348341       25.98148991        0.15884126        0.57338786        2.74000000        2.46703346
    14.10591106       26.05008457        0.16060913        0.57276542        2.74000000        2.46335331
    14.19791199       26.11867923        0.16237753        0.57214323        2.74000000        2.45968200
    14.28949645       26.18727390        0.16414655        0.57152127        2.74000000        2.45601943
    14.38067423       26.25586856        0.16591624        0.57089947        2.74000000        2.45236551
    14.47145476       26.32446322        0.16768667        0.57027781        2.74000000        2.44872011
    14.56184713       26.39305789        0.16945790        0.56965625        2.74000000        2.44508316
    14.65186005       26.46165255        0.17122999        0.56903473        2.74000000        2.44145455
    14.74150192       26.53024721        0.17300299        0.56841323        2.74000000        2.43783420
    14.83078082       26.59884188        0.17477696        0.56779172        2.74000000        2.43422199
    14.91970457       26.66743654        0.17655195        0.56717015        2.74000000        2.43061785
    15.00828067       26.73603120        0.17832799        0.56654849        2.74000000        2.42702168
    15.09651637       26.80462587        0.18010515        0.56592671        2.74000000        2.42343340
    15.18441867       26.87322053        0.18188346        0.56530479        2.74000000        2.41985291
    15.27199432       26.94181519        0.18366296        0.56468267        2.74000000        2.41628013
    15.35924984       27.01040986        0.18544370        0.56406035        2.74000000        2.41271498
    15.44619155       27.07900452        0.18722571        0.56343779        2.74000000        2.40915737
    15.53282553       27.14759918        0.18900902        0.56281496        2.74000000        2.40560723
    15.61915767       27.21619385        0.19079367        0.56219183        2.74000000        2.40206446
    15.70519369       27.28478851        0.19257970        0.56156838        2.74000000        2.39852900
    15.79093909       27.35338317        0.19436713        0.56094458        2.74000000        2.39500076
    15.87639923       27.42197784        0.19615600        0.56032040        2.74000000        2.39147967
    15.96157926       27.49057250        0.19794632        0.55969583        2.74000000        2.38796565
    16.04648423       27.55916716        0.19973814        0.55907084        2.74000000        2.38445863
    16.13111898       27.62776183        0.20153147        0.55844540        2.74000000        2.38095853
    16.21548821       27.69635649        0.20332634        0.55781950        2.74000000        2.37746529
    16.29959652       27.76495115        0.20512277        0.55719310        2.74000000        2.37397883
    16.38344833       27.83354582        0.20692079        0.55656620        2.74000000        2.37049909
    16.46704795       27.90214048        0.20872041        0.55593876        2.74000000        2.36702599
    16.55039956       27.97073514        0.21052166        0.55531077        2.74000000        2.36355947
    16.63350721       28.03932981        0.21232455        0.55468220        2.74000000        2.36009946
    16.71637486       28.10792447        0.21412910        0.55405305        2.74000000        2.35664590
    16.79900633       28.17651913        0.21593533        0.55342328        2.74000000        2.35319872
    16.88140534       28.24511380        0.21774326        0.55279288        2.74000000        2.34975787
    16.96357553       28.31370846        0.21955290        0.55216184        2.74000000        2.34632327
    17.04552041       28.38230312        0.22136426        0.55153013        2.74000000        2.34289487
    17.12724341       28.45089779        0.22317736        0.55089773        2.74000000        2.33947261
    17.20874786       28.51949245        0.22499222        0.55026463        2.74000000        2.33605642
    17.29003702       28.58808711        0.22680884        0.54963082        2.74000000        2.33264626
    17.37111404       28.65668178        0.22862724        0.54899627        2.74000000        2.32924206
    17.45198200       28.72527644        0.23044743        0.54836097        2.74000000        2.32584377
    17.53264389       28.79387110        0.23226941        0.54772490        2.74000000        2.32245133
    17.61310265       28.86246577        0.23409321        0.54708805        2.74000000        2.31906468
    17.69336111       28.93106043        0.23591882        0.54645041        2.74000000        2.31568378
    17.77342206       28.99965509        0.23774625        0.54581195        2.74000000        2.31230858
    17.85328819       29.06824976        0.23957552        0.54517266        2.74000000        2.30893901
    17.93296214       29.13684442        0.24140664        0.54453253        2.74000000        2.30557502
    18.01244650       29.20543908        0.24323960        0.54389155        2.74000000        2.30221658
    18.09174377       29.27403375        0.24507441        0.54324970        2.74000000        2.29886362
    18.17085640       29.34262841        0.24691109        0.54260696        2.74000000        2.29551610
    18.24978678       29.41122307        0.24874963        0.54196333        2.74000000        2.29217398
    18.32853725       29.47981774        0.25059004        0.54131878        2.74000000        2.28883720
    18.40711008       29.54841240        0.25243234        0.54067331        2.74000000        2.28550571
    18.48550751       29.61700706        0.25427651        0.54002691        2.74000000        2.28217948
    18.56373170       29.68560173        0.25612256        0.53937955        2.74000000        2.27885845
    18.64178479       29.75419639        0.25797051        0.53873124        2.74000000        2.27554258
    18.71966884       29.82279105        0.25982034        0.53808195        2.74000000        2.27223183
    18.79738589       29.89138572        0.26167207        0.53743167        2.74000000        2.26892616
    18.87493792       29.95998038        0.26352570        0.53678040        2.74000000        2.26562552
    18.95232687       30.02857504        0.26538122        0.53612812        2.74000000        2.26232987
    19.02955463       30.09716971        0.26723864        0.53547481        2.74000000        2.25903918
    19.10662306       30.16576437        0.26909797        0.53482048        2.74000000        2.25575339
    19.18353397       30.23435903        0.27095919        0.53416509        2.74000000        2.25247247
    19.26028914       30.30295370        0.27282232        0.53350866        2.74000000        2.24919638
    19.33689029       30.37154836        0.27468735        0.53285115        2.74000000        2.24592508
    19.41333913       30.44014302        0.27655429        0.53219257        2.74000000        2.24265854
    19.48963732       30.50873769        0.27842313        0.53153290        2.74000000        2.23939671
    19.56578650       30.57733235        0.28029387        0.53087213        2.74000000        2.23613956
    19.64178824       30.64592701        0.28216652        0.53021026        2.74000000        2.23288706
    19.71764411       30.71452168        0.28404106        0.52954726        2.74000000        2.22963916
    19.79335564       30.78311634        0.28591751        0.52888313        2.74000000        2.22639584
    19.86892433       30.85171100        0.28779585        0.52821786        2.74000000        2.22315705
    19.94435162       30.92030567        0.28967609        0.52755145        2.74000000        2.21992277
    20.01963898       30.98890033        0.29155823        0.52688387        2.74000000        2.21669295
    20.09478780       31.05749499        0.29344226        0.52621512        2.74000000        2.21346758
    20.16979945       31.12608966        0.29532818        0.52554520        2.74000000        2.21024660
    20.24467529       31.19468432        0.29721599        0.52487408        2.74000000        2.20703000
    20.31941665       31.26327898        0.29910568        0.52420176        2.74000000        2.20381774
    20.39402481       31.33187365        0.30099726        0.52352824        2.74000000        2.20060979
    20.46850105       31.40046831        0.30289072        0.52285350        2.74000000        2.19740611
    20.54284663       31.46906297        0.30478605        0.52217753        2.74000000        2.19420669
    20.61706275       31.53765764        0.30668326        0.52150033        2.74000000        2.19101148
    20.69115062       31.60625230        0.30858233        0.52082188        2.74000000        2.18782046
    20.76511143       31.67484696        0.31048327        0.52014217        2.74000000        2.18463360
    20.83894631       31.74344163        0.31238608        0.51946121        2.74000000        2.18145087
    20.91265640       31.81203629        0.31429074        0.51877897        2.74000000        2.17827225
    20.98624281       31.88063095        0.31619725        0.51809545        2.74000000        2.17509770
    21.05970664       31.94922562        0.31810561        0.51741064        2.74000000        2.17192720
    21.13304894       32.01782028        0.32001581        0.51672453        2.74000000        2.16876072
    21.20627078       32.08641494        0.32192786        0.51603711        2.74000000        2.16559824
    21.27937317       32.15500961        0.32384173        0.51534838        2.74000000        2.16243972
    21.35235713       32.22360427        0.32575744        0.51465832        2.74000000        2.15928515
    21.42522365       32.29219893        0.32767497        0.51396694        2.74000000        2.15613450
    21.49797371       32.36079360        0.32959432        0.51327421        2.74000000        2.15298774
    21.57060826       32.42938826        0.33151548        0.51258013        2.74000000        2.14984484
    21.64312823       32.49798292        0.33343845        0.51188469        2.74000000        2.14670580
    21.71553455       32.56657759        0.33536322        0.51118789        2.74000000        2.14357057
    21.78782814       32.63517225        0.33728979        0.51048971        2.74000000        2.14043914
    21.86000986       32.70376691        0.33921814        0.50979016        2.74000000        2.13731149
    21.93208060       32.77236158        0.34114829        0.50908921        2.74000000        2.13418759
    22.00404121       32.84095624        0.34308020        0.50838686        2.74000000        2.13106741
    22.07589254       32.90955090        0.34501389        0.50768311        2.74000000        2.12795095
    22.14763541       32.97814557        0.34694935        0.50697794        2.74000000        2.12483816
    22.21927064       33.04674023        0.34888656        0.50627135        2.74000000        2.12172904
    22.29079902       33.11533489        0.35082553        0.50556333        2.74000000        2.11862357
    22.36222134       33.18392956        0.35276624        0.50485387        2.74000000        2.11552171
    22.43353837       33.25252422        0.35470869        0.50414297        2.74000000        2.11242346
    22.50475087       33.32111888        0.35665287        0.50343062        2.74000000        2.10932878
    22.57585957       33.38971355        0.35859878        0.50271680        2.74000000        2.10623767
    22.64686522       33.45830821        0.36054640        0.50200151        2.74000000        2.10315010
    22.71776853       33.52690287        0.36249574        0.50128475        2.74000000        2.10006605
    22.78857020       33.59549754        0.36444677        0.50056650        2.74000000        2.09698550
    22.85927094       33.66409220        0.36639951        0.49984676        2.74000000        2.09390843
    22.92987142       33.73268686        0.36835393        0.49912552        2.74000000        2.09083483
