#  Theta paroi en deg Angle Choc en deg       Kp           Inverse Mach       Mach amont       Mach aval
     0.00000000       18.09292202        0.00000000        0.68944099        3.22000000
     1.53357075       18.09507923        0.00395156        0.68757229        3.22000000        3.21981668
     1.85317277       18.09809755        0.00541764        0.68688758        3.22000000        3.21956024
     2.19563736       18.10369921        0.00717202        0.68607416        3.22000000        3.21908449
     2.56461122       18.11360640        0.00925826        0.68511510        3.22000000        3.21824362
     2.94592534       18.12954137        0.01161364        0.68404280        3.22000000        3.21689266
     3.33139361       18.15322631        0.01418886        0.68288278        3.22000000        3.21488805
     3.71817863       18.18638347        0.01695982        0.68164859        3.22000000        3.21208853
     4.10622764       18.23073504        0.01992075        0.68034531        3.22000000        3.20835608
     4.49676115       18.28800326        0.02307792        0.67897269        3.22000000        3.20355710
     4.89154169       18.35991034        0.02644573        0.67752718        3.22000000        3.19756358
     5.22329651       18.43181742        0.02941042        0.67627005        3.22000000        3.19160520
     5.51417414       18.50372449        0.03210957        0.67513755        3.22000000        3.18568129
     5.77612649       18.57563157        0.03461936        0.67409445        3.22000000        3.17979117
     6.01639860       18.64753865        0.03698687        0.67311898        3.22000000        3.17393419
     6.23974108       18.71944573        0.03924344        0.67219665        3.22000000        3.16810972
     6.44945113       18.79135281        0.04141111        0.67131727        3.22000000        3.16231712
     6.64791820       18.86325988        0.04350601        0.67047340        3.22000000        3.15655580
     6.83693361       18.93516696        0.04554033        0.66965937        3.22000000        3.15082516
     7.01787767       19.00707404        0.04752354        0.66887082        3.22000000        3.14512463
     7.19183824       19.07898112        0.04946315        0.66810426        3.22000000        3.13945364
     7.35968914       19.15088820        0.05136522        0.66735686        3.22000000        3.13381163
     7.52214370       19.22279527        0.05323471        0.66662633        3.22000000        3.12819808
     7.67979234       19.29470235        0.05507575        0.66591074        3.22000000        3.12261246
     7.83312984       19.36660943        0.05689182        0.66520846        3.22000000        3.11705425
     7.98257510       19.43851651        0.05868585        0.66451812        3.22000000        3.11152295
     8.12848631       19.51042359        0.06046036        0.66383854        3.22000000        3.10601809
     8.27117223       19.58233066        0.06221754        0.66316868        3.22000000        3.10053917
     8.41090105       19.65423774        0.06395927        0.66250766        3.22000000        3.09508574
     8.54790734       19.72614482        0.06568721        0.66185468        3.22000000        3.08965733
     8.68239755       19.79805190        0.06740281        0.66120907        3.22000000        3.08425352
     8.81455435       19.86995898        0.06910737        0.66057019        3.22000000        3.07887385
     8.94454026       19.94186605        0.07080202        0.65993750        3.22000000        3.07351791
     9.07250056       20.01377313        0.07248780        0.65931051        3.22000000        3.06818528
     9.19856565       20.08568021        0.07416562        0.65868877        3.22000000        3.06287556
     9.32285309       20.15758729        0.07583631        0.65807189        3.22000000        3.05758834
     9.44546921       20.22949437        0.07750061        0.65745949        3.22000000        3.05232326
     9.56651061       20.30140144        0.07915919        0.65685124        3.22000000        3.04707991
     9.68606524       20.37330852        0.08081268        0.65624685        3.22000000        3.04185795
     9.80421344       20.44521560        0.08246162        0.65564603        3.22000000        3.03665700
     9.92102889       20.51712268        0.08410654        0.65504853        3.22000000        3.03147671
    10.03657923       20.58902976        0.08574789        0.65445412        3.22000000        3.02631674
    10.15092677       20.66093683        0.08738611        0.65386256        3.22000000        3.02117675
    10.26412908       20.73284391        0.08902159        0.65327368        3.22000000        3.01605640
    10.37623937       20.80475099        0.09065470        0.65268727        3.22000000        3.01095539
    10.48730702       20.87665807        0.09228577        0.65210316        3.22000000        3.00587338
    10.59737790       20.94856515        0.09391511        0.65152119        3.22000000        3.00081007
    10.70649472       21.02047222        0.09554301        0.65094122        3.22000000        2.99576517
    10.81469732       21.09237930        0.09716974        0.65036309        3.22000000        2.99073836
    10.92202289       21.16428638        0.09879555        0.64978668        3.22000000        2.98572938
    11.02850627       21.23619346        0.10042066        0.64921186        3.22000000        2.98073792
    11.13418008       21.30810054        0.10204529        0.64863852        3.22000000        2.97576372
    11.23907496       21.38000761        0.10366965        0.64806654        3.22000000        2.97080651
    11.34321972       21.45191469        0.10529391        0.64749582        3.22000000        2.96586601
    11.44664144       21.52382177        0.10691826        0.64692627        3.22000000        2.96094198
    11.54936568       21.59572885        0.10854287        0.64635779        3.22000000        2.95603415
    11.65141653       21.66763593        0.11016787        0.64579028        3.22000000        2.95114229
    11.75281679       21.73954300        0.11179342        0.64522368        3.22000000        2.94626614
    11.85358798       21.81145008        0.11341965        0.64465790        3.22000000        2.94140547
    11.95375053       21.88335716        0.11504670        0.64409287        3.22000000        2.93656004
    12.05332375       21.95526424        0.11667467        0.64352851        3.22000000        2.93172964
    12.15232602       22.02717132        0.11830368        0.64296476        3.22000000        2.92691403
    12.25077476       22.09907839        0.11993384        0.64240154        3.22000000        2.92211300
    12.34868655       22.17098547        0.12156525        0.64183881        3.22000000        2.91732633
    12.44607715       22.24289255        0.12319800        0.64127651        3.22000000        2.91255382
    12.54296160       22.31479963        0.12483218        0.64071456        3.22000000        2.90779525
    12.63935423       22.38670670        0.12646787        0.64015293        3.22000000        2.90305044
    12.73526869       22.45861378        0.12810516        0.63959156        3.22000000        2.89831918
    12.83071803       22.53052086        0.12974411        0.63903040        3.22000000        2.89360128
    12.92571473       22.60242794        0.13138480        0.63846940        3.22000000        2.88889655
    13.02027070       22.67433502        0.13302729        0.63790852        3.22000000        2.88420481
    13.11439737       22.74624209        0.13467165        0.63734772        3.22000000        2.87952588
    13.20810566       22.81814917        0.13631793        0.63678695        3.22000000        2.87485958
    13.30140607       22.89005625        0.13796620        0.63622616        3.22000000        2.87020573
    13.39430860       22.96196333        0.13961650        0.63566534        3.22000000        2.86556418
    13.48682291       23.03387041        0.14126889        0.63510443        3.22000000        2.86093474
    13.57895827       23.10577748        0.14292341        0.63454339        3.22000000        2.85631726
    13.67072355       23.17768456        0.14458011        0.63398221        3.22000000        2.85171159
    13.76212732       23.24959164        0.14623904        0.63342083        3.22000000        2.84711755
    13.85317779       23.32149872        0.14790022        0.63285924        3.22000000        2.84253500
    13.94388286       23.39340580        0.14956371        0.63229739        3.22000000        2.83796380
    14.03425016       23.46531287        0.15122953        0.63173525        3.22000000        2.83340378
    14.12428704       23.53721995        0.15289773        0.63117281        3.22000000        2.82885482
    14.21400056       23.60912703        0.15456833        0.63061003        3.22000000        2.82431676
    14.30339756       23.68103411        0.15624136        0.63004688        3.22000000        2.81978946
    14.39248462       23.75294119        0.15791686        0.62948333        3.22000000        2.81527281
    14.48126808       23.82484826        0.15959484        0.62891937        3.22000000        2.81076665
    14.56975408       23.89675534        0.16127535        0.62835495        3.22000000        2.80627086
    14.65794858       23.96866242        0.16295840        0.62779007        3.22000000        2.80178532
    14.74585727       24.04056950        0.16464401        0.62722470        3.22000000        2.79730989
    14.83348572       24.11247658        0.16633221        0.62665881        3.22000000        2.79284446
    14.92083929       24.18438365        0.16802302        0.62609238        3.22000000        2.78838890
    15.00792316       24.25629073        0.16971645        0.62552540        3.22000000        2.78394310
    15.09474236       24.32819781        0.17141253        0.62495783        3.22000000        2.77950694
    15.18130174       24.40010489        0.17311128        0.62438966        3.22000000        2.77508030
    15.26760604       24.47201197        0.17481270        0.62382087        3.22000000        2.77066309
    15.35365981       24.54391904        0.17651682        0.62325144        3.22000000        2.76625518
    15.43946750       24.61582612        0.17822365        0.62268135        3.22000000        2.76185647
    15.52503338       24.68773320        0.17993320        0.62211058        3.22000000        2.75746686
    15.61036164       24.75964028        0.18164548        0.62153911        3.22000000        2.75308625
    15.69545631       24.83154736        0.18336052        0.62096693        3.22000000        2.74871452
    15.78032134       24.90345443        0.18507831        0.62039402        3.22000000        2.74435160
    15.86496054       24.97536151        0.18679887        0.61982036        3.22000000        2.73999737
    15.94937760       25.04726859        0.18852221        0.61924594        3.22000000        2.73565174
    16.03357615       25.11917567        0.19024834        0.61867074        3.22000000        2.73131463
    16.11755967       25.19108275        0.19197726        0.61809474        3.22000000        2.72698593
    16.20133156       25.26298982        0.19370898        0.61751793        3.22000000        2.72266557
    16.28489515       25.33489690        0.19544352        0.61694029        3.22000000        2.71835344
    16.36825366       25.40680398        0.19718087        0.61636182        3.22000000        2.71404947
    16.45141022       25.47871106        0.19892104        0.61578249        3.22000000        2.70975358
    16.53436788       25.55061814        0.20066404        0.61520229        3.22000000        2.70546567
    16.61712962       25.62252521        0.20240987        0.61462120        3.22000000        2.70118567
    16.69969832       25.69443229        0.20415854        0.61403922        3.22000000        2.69691350
    16.78207682       25.76633937        0.20591005        0.61345633        3.22000000        2.69264908
    16.86426784       25.83824645        0.20766440        0.61287252        3.22000000        2.68839233
    16.94627409       25.91015353        0.20942160        0.61228777        3.22000000        2.68414318
    17.02809816       25.98206060        0.21118164        0.61170208        3.22000000        2.67990155
    17.10974261       26.05396768        0.21294454        0.61111542        3.22000000        2.67566738
    17.19120990       26.12587476        0.21471029        0.61052779        3.22000000        2.67144059
    17.27250247       26.19778184        0.21647889        0.60993918        3.22000000        2.66722111
    17.35362267       26.26968892        0.21825034        0.60934957        3.22000000        2.66300887
    17.43457282       26.34159599        0.22002465        0.60875896        3.22000000        2.65880381
    17.51535517       26.41350307        0.22180182        0.60816732        3.22000000        2.65460585
    17.59597191       26.48541015        0.22358183        0.60757466        3.22000000        2.65041495
    17.67642518       26.55731723        0.22536471        0.60698096        3.22000000        2.64623102
    17.75671709       26.62922431        0.22715043        0.60638620        3.22000000        2.64205402
    17.83684968       26.70113138        0.22893900        0.60579039        3.22000000        2.63788387
    17.91682495       26.77303846        0.23073043        0.60519350        3.22000000        2.63372053
    17.99664487       26.84494554        0.23252470        0.60459553        3.22000000        2.62956392
    18.07631133       26.91685262        0.23432182        0.60399647        3.22000000        2.62541400
    18.15582620       26.98875970        0.23612179        0.60339630        3.22000000        2.62127070
    18.23519132       27.06066677        0.23792459        0.60279503        3.22000000        2.61713398
    18.31440847       27.13257385        0.23973023        0.60219263        3.22000000        2.61300377
    18.39347940       27.20448093        0.24153871        0.60158910        3.22000000        2.60888002
    18.47240581       27.27638801        0.24335002        0.60098443        3.22000000        2.60476268
    18.55118939       27.34829509        0.24516415        0.60037861        3.22000000        2.60065171
    18.62983176       27.42020216        0.24698111        0.59977163        3.22000000        2.59654704
    18.70833452       27.49210924        0.24880090        0.59916348        3.22000000        2.59244862
    18.78669925       27.56401632        0.25062349        0.59855415        3.22000000        2.58835642
    18.86492747       27.63592340        0.25244890        0.59794364        3.22000000        2.58427038
    18.94302070       27.70783048        0.25427712        0.59733194        3.22000000        2.58019046
    19.02098040       27.77973755        0.25610813        0.59671903        3.22000000        2.57611660
    19.09880802       27.85164463        0.25794195        0.59610491        3.22000000        2.57204877
    19.17650495       27.92355171        0.25977855        0.59548956        3.22000000        2.56798691
    19.25407260       27.99545879        0.26161795        0.59487299        3.22000000        2.56393100
    19.33151231       28.06736587        0.26346012        0.59425519        3.22000000        2.55988097
    19.40882542       28.13927294        0.26530507        0.59363613        3.22000000        2.55583679
    19.48601321       28.21118002        0.26715279        0.59301583        3.22000000        2.55179843
    19.56307697       28.28308710        0.26900327        0.59239426        3.22000000        2.54776583
    19.64001795       28.35499418        0.27085651        0.59177143        3.22000000        2.54373896
    19.71683737       28.42690126        0.27271250        0.59114732        3.22000000        2.53971778
    19.79353644       28.49880833        0.27457123        0.59052192        3.22000000        2.53570225
    19.87011633       28.57071541        0.27643270        0.58989523        3.22000000        2.53169233
    19.94657820       28.64262249        0.27829691        0.58926724        3.22000000        2.52768799
    20.02292319       28.71452957        0.28016383        0.58863794        3.22000000        2.52368919
    20.09915239       28.78643665        0.28203348        0.58800733        3.22000000        2.51969589
    20.17526691       28.85834372        0.28390583        0.58737539        3.22000000        2.51570806
    20.25126782       28.93025080        0.28578089        0.58674213        3.22000000        2.51172567
    20.32715616       29.00215788        0.28765864        0.58610752        3.22000000        2.50774868
    20.40293297       29.07406496        0.28953908        0.58547157        3.22000000        2.50377705
    20.47859926       29.14597204        0.29142220        0.58483427        3.22000000        2.49981076
    20.55415602       29.21787911        0.29330799        0.58419561        3.22000000        2.49584977
    20.62960421       29.28978619        0.29519644        0.58355559        3.22000000        2.49189405
    20.70494481       29.36169327        0.29708756        0.58291419        3.22000000        2.48794357
    20.78017875       29.43360035        0.29898132        0.58227141        3.22000000        2.48399830
    20.85530695       29.50550742        0.30087772        0.58162724        3.22000000        2.48005822
    20.93033031       29.57741450        0.30277675        0.58098168        3.22000000        2.47612328
    21.00524973       29.64932158        0.30467840        0.58033472        3.22000000        2.47219346
    21.08006607       29.72122866        0.30658268        0.57968634        3.22000000        2.46826873
    21.15478021       29.79313574        0.30848955        0.57903656        3.22000000        2.46434907
    21.22939296       29.86504281        0.31039903        0.57838535        3.22000000        2.46043445
    21.30390517       29.93694989        0.31231109        0.57773271        3.22000000        2.45652484
    21.37831765       30.00885697        0.31422574        0.57707864        3.22000000        2.45262021
    21.45263119       30.08076405        0.31614296        0.57642312        3.22000000        2.44872054
    21.52684658       30.15267113        0.31806274        0.57576616        3.22000000        2.44482580
    21.60096459       30.22457820        0.31998507        0.57510774        3.22000000        2.44093597
    21.67498598       30.29648528        0.32190994        0.57444785        3.22000000        2.43705103
    21.74891148       30.36839236        0.32383736        0.57378650        3.22000000        2.43317094
    21.82274184       30.44029944        0.32576729        0.57312368        3.22000000        2.42929568
    21.89647776       30.51220652        0.32769975        0.57245937        3.22000000        2.42542524
    21.97011996       30.58411359        0.32963471        0.57179357        3.22000000        2.42155958
    22.04366914       30.65602067        0.33157216        0.57112628        3.22000000        2.41769870
    22.11712596       30.72792775        0.33351211        0.57045749        3.22000000        2.41384255
    22.19049111       30.79983483        0.33545453        0.56978719        3.22000000        2.40999112
    22.26376524       30.87174191        0.33739942        0.56911537        3.22000000        2.40614440
    22.33694900       30.94364898        0.33934677        0.56844204        3.22000000        2.40230235
    22.41004303       31.01555606        0.34129657        0.56776718        3.22000000        2.39846496
