#  Theta paroi en deg Angle Choc en deg       Kp           Inverse Mach       Mach amont       Mach aval
     0.00000000       22.61986495        0.00000000        0.61538462        2.60000000
     1.74587313       22.62188635        0.00531418        0.61299705        2.60000000        2.59987235
     2.10457765       22.62471465        0.00726649        0.61212782        2.60000000        2.59969377
     2.49130467       22.62996365        0.00961750        0.61108657        2.60000000        2.59936244
     2.90885295       22.63924714        0.01242050        0.60985283        2.60000000        2.59877673
     3.34025118       22.65417891        0.01558516        0.60846972        2.60000000        2.59783541
     3.77547528       22.67637276        0.01903800        0.60697224        2.60000000        2.59643801
     4.21071177       22.70744249        0.02273891        0.60538022        2.60000000        2.59448519
     4.64540619       22.74900189        0.02667221        0.60370261        2.60000000        2.59187930
     5.08051257       22.80266476        0.03083803        0.60194146        2.60000000        2.58852495
     5.51763958       22.87004489        0.03524695        0.60009448        2.60000000        2.58432966
     5.88272415       22.93742503        0.03909718        0.59849532        2.60000000        2.58015250
     6.20106825       23.00480516        0.04257707        0.59706067        2.60000000        2.57599318
     6.48633121       23.07218530        0.04579115        0.59574436        2.60000000        2.57185146
     6.74679546       23.13956543        0.04880413        0.59451782        2.60000000        2.56772708
     6.98789295       23.20694557        0.05165921        0.59336200        2.60000000        2.56361979
     7.21339447       23.27432570        0.05438678        0.59226350        2.60000000        2.55952934
     7.42603301       23.34170584        0.05700914        0.59121249        2.60000000        2.55545550
     7.62785775       23.40908597        0.05954317        0.59020152        2.60000000        2.55139803
     7.82044781       23.47646611        0.06200199        0.58922479        2.60000000        2.54735669
     8.00504797       23.54384624        0.06439605        0.58827772        2.60000000        2.54333127
     8.18265810       23.61122638        0.06673376        0.58735657        2.60000000        2.53932153
     8.35409457       23.67860651        0.06902206        0.58645829        2.60000000        2.53532726
     8.52003316       23.74598665        0.07126670        0.58558032        2.60000000        2.53134824
     8.68104020       23.81336678        0.07347252        0.58472053        2.60000000        2.52738426
     8.83759525       23.88074692        0.07564367        0.58387707        2.60000000        2.52343511
     8.99010836       23.94812705        0.07778366        0.58304839        2.60000000        2.51950059
     9.13893308       24.01550719        0.07989557        0.58223312        2.60000000        2.51558050
     9.28437649       24.08288732        0.08198205        0.58143007        2.60000000        2.51167464
     9.42670723       24.15026746        0.08404544        0.58063820        2.60000000        2.50778281
     9.56616170       24.21764759        0.08608780        0.57985660        2.60000000        2.50390483
     9.70294915       24.28502773        0.08811095        0.57908444        2.60000000        2.50004051
     9.83725574       24.35240787        0.09011653        0.57832099        2.60000000        2.49618967
     9.96924785       24.41978800        0.09210597        0.57756559        2.60000000        2.49235213
    10.09907487       24.48716814        0.09408060        0.57681767        2.60000000        2.48852770
    10.22687149       24.55454827        0.09604158        0.57607667        2.60000000        2.48471622
    10.35275951       24.62192841        0.09798999        0.57534213        2.60000000        2.48091751
    10.47684961       24.68930854        0.09992680        0.57461359        2.60000000        2.47713141
    10.59924253       24.75668868        0.10185288        0.57389066        2.60000000        2.47335775
    10.72003036       24.82406881        0.10376904        0.57317296        2.60000000        2.46959637
    10.83929749       24.89144895        0.10567601        0.57246016        2.60000000        2.46584711
    10.95712142       24.95882908        0.10757448        0.57175195        2.60000000        2.46210982
    11.07357355       25.02620922        0.10946507        0.57104802        2.60000000        2.45838433
    11.18871980       25.09358935        0.11134834        0.57034813        2.60000000        2.45467049
    11.30262119       25.16096949        0.11322484        0.56965201        2.60000000        2.45096817
    11.41533423       25.22834962        0.11509505        0.56895944        2.60000000        2.44727721
    11.52691152       25.29572976        0.11695943        0.56827020        2.60000000        2.44359746
    11.63740196       25.36310989        0.11881839        0.56758410        2.60000000        2.43992879
    11.74685117       25.43049003        0.12067234        0.56690094        2.60000000        2.43627106
    11.85530177       25.49787016        0.12252163        0.56622055        2.60000000        2.43262413
    11.96279363       25.56525030        0.12436662        0.56554276        2.60000000        2.42898786
    12.06936413       25.63263043        0.12620762        0.56486742        2.60000000        2.42536213
    12.17504833       25.70001057        0.12804493        0.56419438        2.60000000        2.42174680
    12.27987923       25.76739070        0.12987883        0.56352351        2.60000000        2.41814175
    12.38388782       25.83477084        0.13170959        0.56285468        2.60000000        2.41454685
    12.48710335       25.90215097        0.13353744        0.56218776        2.60000000        2.41096197
    12.58955341       25.96953111        0.13536263        0.56152263        2.60000000        2.40738700
    12.69126407       26.03691124        0.13718537        0.56085919        2.60000000        2.40382182
    12.79225995       26.10429138        0.13900587        0.56019733        2.60000000        2.40026630
    12.89256442       26.17167151        0.14082431        0.55953696        2.60000000        2.39672033
    12.99219957       26.23905165        0.14264089        0.55887798        2.60000000        2.39318380
    13.09118639       26.30643178        0.14445578        0.55822029        2.60000000        2.38965659
    13.18954481       26.37381192        0.14626913        0.55756382        2.60000000        2.38613861
    13.28729378       26.44119205        0.14808112        0.55690848        2.60000000        2.38262972
    13.38445132       26.50857219        0.14989187        0.55625420        2.60000000        2.37912984
    13.48103459       26.57595232        0.15170153        0.55560090        2.60000000        2.37563886
    13.57705996       26.64333246        0.15351023        0.55494851        2.60000000        2.37215667
    13.67254301       26.71071259        0.15531810        0.55429696        2.60000000        2.36868316
    13.76749867       26.77809273        0.15712525        0.55364619        2.60000000        2.36521825
    13.86194114       26.84547286        0.15893179        0.55299613        2.60000000        2.36176184
    13.95588404       26.91285300        0.16073784        0.55234672        2.60000000        2.35831382
    14.04934040       26.98023313        0.16254349        0.55169791        2.60000000        2.35487409
    14.14232266       27.04761327        0.16434884        0.55104965        2.60000000        2.35144258
    14.23484278       27.11499340        0.16615398        0.55040187        2.60000000        2.34801918
    14.32691219       27.18237354        0.16795900        0.54975453        2.60000000        2.34460381
    14.41854188       27.24975367        0.16976398        0.54910758        2.60000000        2.34119637
    14.50974240       27.31713381        0.17156900        0.54846097        2.60000000        2.33779678
    14.60052385       27.38451394        0.17337414        0.54781466        2.60000000        2.33440495
    14.69089598       27.45189408        0.17517947        0.54716859        2.60000000        2.33102079
    14.78086814       27.51927421        0.17698505        0.54652274        2.60000000        2.32764423
    14.87044933       27.58665435        0.17879096        0.54587705        2.60000000        2.32427518
    14.95964821       27.65403448        0.18059724        0.54523149        2.60000000        2.32091355
    15.04847312       27.72141462        0.18240398        0.54458602        2.60000000        2.31755928
    15.13693211       27.78879475        0.18421121        0.54394060        2.60000000        2.31421227
    15.22503293       27.85617489        0.18601900        0.54329519        2.60000000        2.31087246
    15.31278305       27.92355502        0.18782740        0.54264977        2.60000000        2.30753976
    15.40018968       27.99093516        0.18963645        0.54200430        2.60000000        2.30421410
    15.48725978       28.05831529        0.19144620        0.54135874        2.60000000        2.30089541
    15.57400010       28.12569543        0.19325671        0.54071306        2.60000000        2.29758362
    15.66041712       28.19307556        0.19506800        0.54006723        2.60000000        2.29427865
    15.74651711       28.26045570        0.19688013        0.53942123        2.60000000        2.29098043
    15.83230617       28.32783583        0.19869313        0.53877501        2.60000000        2.28768889
    15.91779016       28.39521597        0.20050704        0.53812857        2.60000000        2.28440397
    16.00297478       28.46259610        0.20232190        0.53748185        2.60000000        2.28112560
    16.08786551       28.52997624        0.20413773        0.53683485        2.60000000        2.27785371
    16.17246771       28.59735637        0.20595458        0.53618753        2.60000000        2.27458823
    16.25678654       28.66473651        0.20777247        0.53553987        2.60000000        2.27132911
    16.34082700       28.73211664        0.20959144        0.53489185        2.60000000        2.26807628
    16.42459395       28.79949678        0.21141151        0.53424343        2.60000000        2.26482967
    16.50809209       28.86687691        0.21323271        0.53359459        2.60000000        2.26158922
    16.59132600       28.93425705        0.21505507        0.53294532        2.60000000        2.25835489
    16.67430011       29.00163718        0.21687861        0.53229559        2.60000000        2.25512659
    16.75701872       29.06901732        0.21870335        0.53164538        2.60000000        2.25190429
    16.83948602       29.13639745        0.22052933        0.53099467        2.60000000        2.24868791
    16.92170605       29.20377759        0.22235655        0.53034343        2.60000000        2.24547740
    17.00368278       29.27115772        0.22418504        0.52969164        2.60000000        2.24227271
    17.08542002       29.33853786        0.22601482        0.52903930        2.60000000        2.23907378
    17.16692151       29.40591799        0.22784591        0.52838636        2.60000000        2.23588056
    17.24819088       29.47329813        0.22967833        0.52773283        2.60000000        2.23269299
    17.32923165       29.54067826        0.23151209        0.52707867        2.60000000        2.22951102
    17.41004724       29.60805840        0.23334721        0.52642387        2.60000000        2.22633460
    17.49064102       29.67543853        0.23518371        0.52576841        2.60000000        2.22316368
    17.57101621       29.74281867        0.23702159        0.52511228        2.60000000        2.21999820
    17.65117599       29.81019880        0.23886088        0.52445546        2.60000000        2.21683812
    17.73112346       29.87757894        0.24070159        0.52379792        2.60000000        2.21368339
    17.81086159       29.94495907        0.24254373        0.52313966        2.60000000        2.21053396
    17.89039333       30.01233921        0.24438731        0.52248065        2.60000000        2.20738978
    17.96972152       30.07971934        0.24623234        0.52182089        2.60000000        2.20425081
    18.04884896       30.14709948        0.24807884        0.52116035        2.60000000        2.20111700
    18.12777835       30.21447961        0.24992681        0.52049902        2.60000000        2.19798830
    18.20651234       30.28185975        0.25177626        0.51983688        2.60000000        2.19486468
    18.28505350       30.34923988        0.25362721        0.51917393        2.60000000        2.19174608
    18.36340436       30.41662002        0.25547965        0.51851013        2.60000000        2.18863246
    18.44156738       30.48400015        0.25733361        0.51784549        2.60000000        2.18552378
    18.51954494       30.55138029        0.25918908        0.51717999        2.60000000        2.18241999
    18.59733941       30.61876042        0.26104607        0.51651361        2.60000000        2.17932107
    18.67495305       30.68614056        0.26290459        0.51584634        2.60000000        2.17622696
    18.75238810       30.75352070        0.26476465        0.51517816        2.60000000        2.17313762
    18.82964676       30.82090083        0.26662625        0.51450907        2.60000000        2.17005302
    18.90673114       30.88828097        0.26848940        0.51383904        2.60000000        2.16697312
    18.98364333       30.95566110        0.27035409        0.51316807        2.60000000        2.16389787
    19.06038538       31.02304124        0.27222034        0.51249614        2.60000000        2.16082724
    19.13695926       31.09042137        0.27408815        0.51182325        2.60000000        2.15776119
    19.21336692       31.15780151        0.27595752        0.51114937        2.60000000        2.15469969
    19.28961027       31.22518164        0.27782846        0.51047450        2.60000000        2.15164269
    19.36569116       31.29256178        0.27970097        0.50979862        2.60000000        2.14859017
    19.44161143       31.35994191        0.28157504        0.50912173        2.60000000        2.14554209
    19.51737284       31.42732205        0.28345070        0.50844380        2.60000000        2.14249841
    19.59297715       31.49470218        0.28532792        0.50776484        2.60000000        2.13945909
    19.66842605       31.56208232        0.28720673        0.50708482        2.60000000        2.13642411
    19.74372121       31.62946245        0.28908711        0.50640374        2.60000000        2.13339343
    19.81886427       31.69684259        0.29096907        0.50572158        2.60000000        2.13036702
    19.89385684       31.76422272        0.29285261        0.50503834        2.60000000        2.12734485
    19.96870046       31.83160286        0.29473773        0.50435400        2.60000000        2.12432688
    20.04339668       31.89898299        0.29662444        0.50366855        2.60000000        2.12131307
    20.11794701       31.96636313        0.29851272        0.50298198        2.60000000        2.11830342
    20.19235290       32.03374326        0.30040259        0.50229429        2.60000000        2.11529787
    20.26661581       32.10112340        0.30229403        0.50160545        2.60000000        2.11229640
    20.34073714       32.16850353        0.30418705        0.50091547        2.60000000        2.10929898
    20.41471828       32.23588367        0.30608165        0.50022433        2.60000000        2.10630558
    20.48856059       32.30326380        0.30797783        0.49953201        2.60000000        2.10331618
    20.56226539       32.37064394        0.30987558        0.49883852        2.60000000        2.10033073
    20.63583398       32.43802407        0.31177491        0.49814384        2.60000000        2.09734923
    20.70926765       32.50540421        0.31367581        0.49744796        2.60000000        2.09437163
    20.78256765       32.57278434        0.31557827        0.49675086        2.60000000        2.09139791
    20.85573521       32.64016448        0.31748231        0.49605255        2.60000000        2.08842805
    20.92877152       32.70754461        0.31938791        0.49535301        2.60000000        2.08546201
    21.00167778       32.77492475        0.32129507        0.49465223        2.60000000        2.08249978
    21.07445513       32.84230488        0.32320379        0.49395021        2.60000000        2.07954132
    21.14710473       32.90968502        0.32511406        0.49324692        2.60000000        2.07658661
    21.21962767       32.97706515        0.32702589        0.49254237        2.60000000        2.07363562
    21.29202505       33.04444529        0.32893927        0.49183655        2.60000000        2.07068833
    21.36429796       33.11182542        0.33085420        0.49112944        2.60000000        2.06774472
    21.43644744       33.17920556        0.33277067        0.49042104        2.60000000        2.06480476
    21.50847452       33.24658569        0.33468867        0.48971133        2.60000000        2.06186843
    21.58038022       33.31396583        0.33660822        0.48900031        2.60000000        2.05893570
    21.65216554       33.38134596        0.33852929        0.48828798        2.60000000        2.05600656
    21.72383145       33.44872610        0.34045189        0.48757431        2.60000000        2.05308097
    21.79537892       33.51610623        0.34237601        0.48685931        2.60000000        2.05015892
    21.86680889       33.58348637        0.34430164        0.48614296        2.60000000        2.04724038
    21.93812227       33.65086650        0.34622879        0.48542525        2.60000000        2.04432534
    22.00931998       33.71824664        0.34815745        0.48470618        2.60000000        2.04141376
    22.08040292       33.78562677        0.35008761        0.48398574        2.60000000        2.03850564
    22.15137196       33.85300691        0.35201927        0.48326392        2.60000000        2.03560094
    22.22222795       33.92038704        0.35395242        0.48254070        2.60000000        2.03269966
    22.29297175       33.98776718        0.35588706        0.48181610        2.60000000        2.02980176
    22.36360419       34.05514731        0.35782318        0.48109008        2.60000000        2.02690722
    22.43412608       34.12252745        0.35976078        0.48036265        2.60000000        2.02401604
    22.50453822       34.18990758        0.36169985        0.47963380        2.60000000        2.02112818
    22.57484139       34.25728772        0.36364038        0.47890352        2.60000000        2.01824363
    22.64503638       34.32466785        0.36558237        0.47817179        2.60000000        2.01536238
    22.71512395       34.39204799        0.36752582        0.47743863        2.60000000        2.01248439
    22.78510483       34.45942812        0.36947071        0.47670400        2.60000000        2.00960966
    22.85497977       34.52680826        0.37141704        0.47596791        2.60000000        2.00673816
    22.92474949       34.59418839        0.37336481        0.47523036        2.60000000        2.00386988
    22.99441468       34.66156853        0.37531400        0.47449132        2.60000000        2.00100480
    23.06397606       34.72894866        0.37726462        0.47375079        2.60000000        1.99814290
