#  Theta paroi en deg Angle Choc en deg       Kp           Inverse Mach       Mach amont       Mach aval
     0.00000000       21.90904979        0.00000000        0.62686567        2.68000000
     1.71549341       21.91109252        0.00510149        0.62456307        2.68000000        2.67986569
     2.06884975       21.91395066        0.00697913        0.62372365        2.68000000        2.67967780
     2.44939632       21.91925502        0.00923772        0.62271951        2.68000000        2.67932919
     2.86009679       21.92863644        0.01192917        0.62153076        2.68000000        2.67871294
     3.28439973       21.94372573        0.01496755        0.62019877        2.68000000        2.67772259
     3.71255806       21.96615372        0.01828326        0.61875697        2.68000000        2.67625249
     4.14090833       21.99755121        0.02183885        0.61722414        2.68000000        2.67419826
     4.56897581       22.03954904        0.02562028        0.61560859        2.68000000        2.67145735
     4.99775892       22.09377801        0.02962879        0.61391198        2.68000000        2.66792973
     5.42889351       22.16186896        0.03387567        0.61213178        2.68000000        2.66351855
     5.78927688       22.22995991        0.03758839        0.61058959        2.68000000        2.65912730
     6.10376044       22.29805086        0.04094733        0.60920532        2.68000000        2.65475570
     6.38575927       22.36614181        0.04405255        0.60793458        2.68000000        2.65040343
     6.64340724       22.43423277        0.04696599        0.60674995        2.68000000        2.64607022
     6.88203871       22.50232372        0.04972897        0.60563312        2.68000000        2.64175576
     7.10535650       22.57041467        0.05237056        0.60457123        2.68000000        2.63745978
     7.31604440       22.63850562        0.05491210        0.60355483        2.68000000        2.63318201
     7.51611454       22.70659657        0.05736971        0.60257678        2.68000000        2.62892218
     7.70711754       22.77468752        0.05975596        0.60163153        2.68000000        2.62468001
     7.89027559       22.84277847        0.06208080        0.60071465        2.68000000        2.62045526
     8.06657052       22.91086942        0.06435229        0.59982257        2.68000000        2.61624765
     8.23680385       22.97896037        0.06657704        0.59895236        2.68000000        2.61205696
     8.40163916       23.04705132        0.06876056        0.59810158        2.68000000        2.60788292
     8.56163243       23.11514227        0.07090747        0.59726816        2.68000000        2.60372530
     8.71725453       23.18323322        0.07302172        0.59645035        2.68000000        2.59958386
     8.86890809       23.25132417        0.07510667        0.59564664        2.68000000        2.59545837
     9.01694015       23.31941512        0.07716525        0.59485574        2.68000000        2.59134860
     9.16165224       23.38750607        0.07920000        0.59407649        2.68000000        2.58725432
     9.30330811       23.45559702        0.08121314        0.59330791        2.68000000        2.58317533
     9.44213983       23.52368797        0.08320664        0.59254911        2.68000000        2.57911140
     9.57835283       23.59177892        0.08518224        0.59179930        2.68000000        2.57506232
     9.71212986       23.65986987        0.08714148        0.59105779        2.68000000        2.57102788
     9.84363428       23.72796082        0.08908576        0.59032394        2.68000000        2.56700788
     9.97301274       23.79605177        0.09101631        0.58959719        2.68000000        2.56300212
    10.10039745       23.86414272        0.09293426        0.58887704        2.68000000        2.55901040
    10.22590802       23.93223367        0.09484063        0.58816300        2.68000000        2.55503253
    10.34965304       24.00032462        0.09673634        0.58745467        2.68000000        2.55106833
    10.47173145       24.06841557        0.09862221        0.58675166        2.68000000        2.54711759
    10.59223365       24.13650652        0.10049903        0.58605360        2.68000000        2.54318015
    10.71124246       24.20459747        0.10236750        0.58536018        2.68000000        2.53925581
    10.82883396       24.27268842        0.10422824        0.58467110        2.68000000        2.53534441
    10.94507827       24.34077937        0.10608187        0.58398608        2.68000000        2.53144578
    11.06004007       24.40887032        0.10792891        0.58330486        2.68000000        2.52755973
    11.17377925       24.47696127        0.10976988        0.58262720        2.68000000        2.52368611
    11.28635133       24.54505222        0.11160525        0.58195289        2.68000000        2.51982475
    11.39780790       24.61314317        0.11343544        0.58128171        2.68000000        2.51597548
    11.50819696       24.68123412        0.11526085        0.58061348        2.68000000        2.51213816
    11.61756333       24.74932507        0.11708186        0.57994802        2.68000000        2.50831262
    11.72594882       24.81741602        0.11889881        0.57928515        2.68000000        2.50449871
    11.83339258       24.88550697        0.12071204        0.57862472        2.68000000        2.50069628
    11.93993130       24.95359792        0.12252184        0.57796659        2.68000000        2.49690519
    12.04559940       25.02168887        0.12432849        0.57731060        2.68000000        2.49312528
    12.15042926       25.08977982        0.12613227        0.57665662        2.68000000        2.48935642
    12.25445132       25.15787077        0.12793342        0.57600455        2.68000000        2.48559846
    12.35769429       25.22596172        0.12973217        0.57535425        2.68000000        2.48185127
    12.46018525       25.29405267        0.13152875        0.57470561        2.68000000        2.47811471
    12.56194979       25.36214362        0.13332335        0.57405853        2.68000000        2.47438865
    12.66301210       25.43023457        0.13511618        0.57341291        2.68000000        2.47067296
    12.76339508       25.49832552        0.13690742        0.57276866        2.68000000        2.46696750
    12.86312047       25.56641647        0.13869724        0.57212568        2.68000000        2.46327216
    12.96220885       25.63450743        0.14048580        0.57148388        2.68000000        2.45958681
    13.06067978       25.70259838        0.14227326        0.57084319        2.68000000        2.45591132
    13.15855188       25.77068933        0.14405977        0.57020353        2.68000000        2.45224558
    13.25584284       25.83878028        0.14584545        0.56956483        2.68000000        2.44858946
    13.35256951       25.90687123        0.14763045        0.56892700        2.68000000        2.44494286
    13.44874795       25.97496218        0.14941488        0.56828999        2.68000000        2.44130565
    13.54439348       26.04305313        0.15119886        0.56765373        2.68000000        2.43767773
    13.63952072       26.11114408        0.15298250        0.56701815        2.68000000        2.43405898
    13.73414366       26.17923503        0.15476592        0.56638320        2.68000000        2.43044930
    13.82827566       26.24732598        0.15654920        0.56574882        2.68000000        2.42684858
    13.92192950       26.31541693        0.15833245        0.56511495        2.68000000        2.42325671
    14.01511741       26.38350788        0.16011575        0.56448154        2.68000000        2.41967360
    14.10785112       26.45159883        0.16189919        0.56384854        2.68000000        2.41609913
    14.20014188       26.51968978        0.16368286        0.56321590        2.68000000        2.41253321
    14.29200046       26.58778073        0.16546682        0.56258357        2.68000000        2.40897574
    14.38343724       26.65587168        0.16725115        0.56195152        2.68000000        2.40542663
    14.47446213       26.72396263        0.16903594        0.56131968        2.68000000        2.40188578
    14.56508470       26.79205358        0.17082123        0.56068803        2.68000000        2.39835310
    14.65531416       26.86014453        0.17260709        0.56005651        2.68000000        2.39482848
    14.74515931       26.92823548        0.17439360        0.55942510        2.68000000        2.39131186
    14.83462870       26.99632643        0.17618079        0.55879375        2.68000000        2.38780312
    14.92373050       27.06441738        0.17796874        0.55816243        2.68000000        2.38430220
    15.01247261       27.13250833        0.17975749        0.55753110        2.68000000        2.38080899
    15.10086266       27.20059928        0.18154709        0.55689972        2.68000000        2.37732343
    15.18890798       27.26869023        0.18333759        0.55626826        2.68000000        2.37384541
    15.27661567       27.33678118        0.18512904        0.55563669        2.68000000        2.37037487
    15.36399256       27.40487213        0.18692148        0.55500498        2.68000000        2.36691172
    15.45104526       27.47296308        0.18871496        0.55437310        2.68000000        2.36345588
    15.53778017       27.54105403        0.19050950        0.55374102        2.68000000        2.36000727
    15.62420344       27.60914498        0.19230515        0.55310870        2.68000000        2.35656581
    15.71032105       27.67723593        0.19410195        0.55247613        2.68000000        2.35313144
    15.79613879       27.74532688        0.19589994        0.55184326        2.68000000        2.34970408
    15.88166223       27.81341783        0.19769913        0.55121009        2.68000000        2.34628364
    15.96689678       27.88150878        0.19949957        0.55057657        2.68000000        2.34287007
    16.05184770       27.94959973        0.20130129        0.54994269        2.68000000        2.33946329
    16.13652005       28.01769068        0.20310431        0.54930843        2.68000000        2.33606322
    16.22091876       28.08578163        0.20490867        0.54867375        2.68000000        2.33266981
    16.30504861       28.15387258        0.20671438        0.54803863        2.68000000        2.32928299
    16.38891421       28.22196353        0.20852147        0.54740305        2.68000000        2.32590268
    16.47252008       28.29005448        0.21032998        0.54676700        2.68000000        2.32252882
    16.55587055       28.35814543        0.21213991        0.54613044        2.68000000        2.31916134
    16.63896986       28.42623638        0.21395129        0.54549336        2.68000000        2.31580020
    16.72182213       28.49432733        0.21576414        0.54485574        2.68000000        2.31244531
    16.80443134       28.56241828        0.21757848        0.54421755        2.68000000        2.30909662
    16.88680139       28.63050923        0.21939434        0.54357877        2.68000000        2.30575407
    16.96893603       28.69860018        0.22121172        0.54293940        2.68000000        2.30241761
    17.05083893       28.76669113        0.22303064        0.54229940        2.68000000        2.29908716
    17.13251366       28.83478209        0.22485113        0.54165876        2.68000000        2.29576267
    17.21396368       28.90287304        0.22667319        0.54101747        2.68000000        2.29244410
    17.29519239       28.97096399        0.22849684        0.54037550        2.68000000        2.28913137
    17.37620305       29.03905494        0.23032209        0.53973283        2.68000000        2.28582444
    17.45699886       29.10714589        0.23214896        0.53908945        2.68000000        2.28252325
    17.53758296       29.17523684        0.23397746        0.53844535        2.68000000        2.27922774
    17.61795836       29.24332779        0.23580760        0.53780051        2.68000000        2.27593787
    17.69812801       29.31141874        0.23763939        0.53715490        2.68000000        2.27265359
    17.77809482       29.37950969        0.23947284        0.53650852        2.68000000        2.26937483
    17.85786157       29.44760064        0.24130796        0.53586135        2.68000000        2.26610156
    17.93743102       29.51569159        0.24314476        0.53521337        2.68000000        2.26283372
    18.01680581       29.58378254        0.24498325        0.53456458        2.68000000        2.25957127
    18.09598858       29.65187349        0.24682343        0.53391495        2.68000000        2.25631415
    18.17498184       29.71996444        0.24866532        0.53326447        2.68000000        2.25306232
    18.25378810       29.78805539        0.25050893        0.53261312        2.68000000        2.24981573
    18.33240975       29.85614634        0.25235424        0.53196090        2.68000000        2.24657434
    18.41084916       29.92423729        0.25420129        0.53130779        2.68000000        2.24333810
    18.48910864       29.99232824        0.25605006        0.53065377        2.68000000        2.24010696
    18.56719043       30.06041919        0.25790057        0.52999884        2.68000000        2.23688089
    18.64509675       30.12851014        0.25975281        0.52934297        2.68000000        2.23365984
    18.72282974       30.19660109        0.26160680        0.52868616        2.68000000        2.23044377
    18.80039149       30.26469204        0.26346254        0.52802840        2.68000000        2.22723263
    18.87778405       30.33278299        0.26532003        0.52736967        2.68000000        2.22402639
    18.95500945       30.40087394        0.26717927        0.52670995        2.68000000        2.22082500
    19.03206963       30.46896489        0.26904027        0.52604924        2.68000000        2.21762843
    19.10896651       30.53705584        0.27090303        0.52538753        2.68000000        2.21443663
    19.18570196       30.60514679        0.27276755        0.52472480        2.68000000        2.21124956
    19.26227782       30.67323774        0.27463384        0.52406104        2.68000000        2.20806720
    19.33869589       30.74132869        0.27650189        0.52339625        2.68000000        2.20488949
    19.41495791       30.80941964        0.27837170        0.52273040        2.68000000        2.20171641
    19.49106560       30.87751059        0.28024328        0.52206349        2.68000000        2.19854792
    19.56702065       30.94560154        0.28211663        0.52139550        2.68000000        2.19538398
    19.64282469       31.01369249        0.28399175        0.52072643        2.68000000        2.19222455
    19.71847935       31.08178344        0.28586864        0.52005627        2.68000000        2.18906960
    19.79398618       31.14987439        0.28774729        0.51938500        2.68000000        2.18591910
    19.86934675       31.21796534        0.28962771        0.51871261        2.68000000        2.18277302
    19.94456255       31.28605629        0.29150989        0.51803910        2.68000000        2.17963131
    20.01963508       31.35414724        0.29339385        0.51736445        2.68000000        2.17649394
    20.09456577       31.42223819        0.29527956        0.51668865        2.68000000        2.17336090
    20.16935606       31.49032914        0.29716704        0.51601170        2.68000000        2.17023213
    20.24400734       31.55842009        0.29905628        0.51533357        2.68000000        2.16710761
    20.31852095       31.62651104        0.30094728        0.51465428        2.68000000        2.16398732
    20.39289826       31.69460199        0.30284003        0.51397379        2.68000000        2.16087121
    20.46714057       31.76269294        0.30473454        0.51329211        2.68000000        2.15775926
    20.54124915       31.83078389        0.30663080        0.51260922        2.68000000        2.15465145
    20.61522528       31.89887484        0.30852881        0.51192511        2.68000000        2.15154773
    20.68907018       31.96696579        0.31042857        0.51123978        2.68000000        2.14844808
    20.76278508       32.03505675        0.31233007        0.51055322        2.68000000        2.14535248
    20.83637115       32.10314770        0.31423331        0.50986541        2.68000000        2.14226089
    20.90982956       32.17123865        0.31613829        0.50917635        2.68000000        2.13917329
    20.98316145       32.23932960        0.31804500        0.50848603        2.68000000        2.13608965
    21.05636795       32.30742055        0.31995344        0.50779443        2.68000000        2.13300994
    21.12945016       32.37551150        0.32186360        0.50710156        2.68000000        2.12993414
    21.20240916       32.44360245        0.32377549        0.50640739        2.68000000        2.12686223
    21.27524600       32.51169340        0.32568909        0.50571193        2.68000000        2.12379417
    21.34796172       32.57978435        0.32760440        0.50501516        2.68000000        2.12072994
    21.42055735       32.64787530        0.32952143        0.50431708        2.68000000        2.11766951
    21.49303388       32.71596625        0.33144015        0.50361767        2.68000000        2.11461287
    21.56539230       32.78405720        0.33336058        0.50291693        2.68000000        2.11155998
    21.63763358       32.85214815        0.33528269        0.50221485        2.68000000        2.10851083
    21.70975866       32.92023910        0.33720650        0.50151142        2.68000000        2.10546539
    21.78176847       32.98833005        0.33913199        0.50080663        2.68000000        2.10242363
    21.85366392       33.05642100        0.34105916        0.50010048        2.68000000        2.09938554
    21.92544592       33.12451195        0.34298799        0.49939295        2.68000000        2.09635109
    21.99711534       33.19260290        0.34491850        0.49868404        2.68000000        2.09332026
    22.06867305       33.26069385        0.34685067        0.49797373        2.68000000        2.09029303
    22.14011990       33.32878480        0.34878449        0.49726203        2.68000000        2.08726937
    22.21145673       33.39687575        0.35071996        0.49654892        2.68000000        2.08424927
    22.28268434       33.46496670        0.35265707        0.49583439        2.68000000        2.08123270
    22.35380356       33.53305765        0.35459582        0.49511844        2.68000000        2.07821965
    22.42481517       33.60114860        0.35653621        0.49440106        2.68000000        2.07521009
    22.49571995       33.66923955        0.35847821        0.49368224        2.68000000        2.07220400
    22.56651865       33.73733050        0.36042184        0.49296197        2.68000000        2.06920137
    22.63721205       33.80542145        0.36236707        0.49224025        2.68000000        2.06620217
    22.70780086       33.87351240        0.36431391        0.49151706        2.68000000        2.06320638
    22.77828583       33.94160335        0.36626235        0.49079240        2.68000000        2.06021399
    22.84866765       34.00969430        0.36821237        0.49006626        2.68000000        2.05722498
    22.91894703       34.07778525        0.37016399        0.48933864        2.68000000        2.05423932
    22.98912466       34.14587620        0.37211718        0.48860952        2.68000000        2.05125701
