#  Theta paroi en deg Angle Choc en deg       Kp           Inverse Mach       Mach amont       Mach aval
     0.00000000       60.40815421        0.00000000        0.13043478        1.15000000
     2.05376258       60.40904196        0.01049615        0.12464260        1.15000000        1.14998388
     2.26356460       60.41028409        0.01245980        0.12355414        1.15000000        1.14996131
     2.54762170       60.41258933        0.01533594        0.12195709        1.15000000        1.14991945
     2.89623687       60.41666643        0.01919409        0.11980952        1.15000000        1.14984541
     3.28170205       60.42322413        0.02386306        0.11720250        1.15000000        1.14972634
     3.68362664       60.43297117        0.02916279        0.11423241        1.15000000        1.14954942
     4.09079598       60.44661630        0.03496286        0.11096847        1.15000000        1.14930184
     4.49766147       60.46486826        0.04117667        0.10745591        1.15000000        1.14897086
     4.90165082       60.48843579        0.04774719        0.10372367        1.15000000        1.14854380
     5.30169243       60.51802763        0.05463637        0.09979019        1.15000000        1.14800806
     5.62995199       60.54761948        0.06056785        0.09638666        1.15000000        1.14747288
     5.91113996       60.57721133        0.06584514        0.09334521        1.15000000        1.14693825
     6.15875428       60.60680317        0.07064060        0.09057045        1.15000000        1.14640417
     6.38104868       60.63639502        0.07506295        0.08800218        1.15000000        1.14587064
     6.58347151       60.66598686        0.07918584        0.08559962        1.15000000        1.14533766
     6.76982478       60.69557871        0.08306182        0.08333365        1.15000000        1.14480523
     6.94287620       60.72517055        0.08672990        0.08118265        1.15000000        1.14427335
     7.10470874       60.75476240        0.09021992        0.07913008        1.15000000        1.14374202
     7.25693286       60.78435425        0.09355534        0.07716294        1.15000000        1.14321123
     7.40082161       60.81394609        0.09675496        0.07527079        1.15000000        1.14268100
     7.53740038       60.84353794        0.09983411        0.07344514        1.15000000        1.14215131
     7.66750828       60.87312978        0.10280550        0.07167894        1.15000000        1.14162217
     7.79184143       60.90272163        0.10567976        0.06996628        1.15000000        1.14109357
     7.91098440       60.93231347        0.10846595        0.06830216        1.15000000        1.14056552
     8.02543311       60.96190532        0.11117179        0.06668226        1.15000000        1.14003802
     8.13561235       60.99149717        0.11380399        0.06510289        1.15000000        1.13951106
     8.24188897       61.02108901        0.11636835        0.06356081        1.15000000        1.13898464
     8.34458212       61.05068086        0.11887000        0.06205318        1.15000000        1.13845878
     8.44397141       61.08027270        0.12131343        0.06057750        1.15000000        1.13793345
     8.54030324       61.10986455        0.12370266        0.05913156        1.15000000        1.13740867
     8.63379599       61.13945640        0.12604126        0.05771336        1.15000000        1.13688443
     8.72464422       61.16904824        0.12833242        0.05632113        1.15000000        1.13636074
     8.81302202       61.19864009        0.13057904        0.05495327        1.15000000        1.13583759
     8.89908590       61.22823193        0.13278371        0.05360833        1.15000000        1.13531498
     8.98297713       61.25782378        0.13494881        0.05228500        1.15000000        1.13479292
     9.06482362       61.28741562        0.13707650        0.05098208        1.15000000        1.13427139
     9.14474168       61.31700747        0.13916873        0.04969847        1.15000000        1.13375041
     9.22283735       61.34659932        0.14122732        0.04843319        1.15000000        1.13322997
     9.29920762       61.37619116        0.14325393        0.04718529        1.15000000        1.13271007
     9.37394148       61.40578301        0.14525008        0.04595395        1.15000000        1.13219071
     9.44712073       61.43537485        0.14721719        0.04473836        1.15000000        1.13167189
     9.51882080       61.46496670        0.14915656        0.04353782        1.15000000        1.13115360
     9.58911140       61.49455854        0.15106941        0.04235163        1.15000000        1.13063586
     9.65805708       61.52415039        0.15295687        0.04117918        1.15000000        1.13011866
     9.72571776       61.55374224        0.15481999        0.04001989        1.15000000        1.12960200
     9.79214917       61.58333408        0.15665976        0.03887320        1.15000000        1.12908587
     9.85740320       61.61292593        0.15847708        0.03773861        1.15000000        1.12857028
     9.92152830       61.64251777        0.16027282        0.03661565        1.15000000        1.12805523
     9.98456979       61.67210962        0.16204778        0.03550386        1.15000000        1.12754072
    10.04657006       61.70170147        0.16380273        0.03440282        1.15000000        1.12702675
    10.10756891       61.73129331        0.16553838        0.03331214        1.15000000        1.12651331
    10.16760369       61.76088516        0.16725540        0.03223145        1.15000000        1.12600041
    10.22670956       61.79047700        0.16895442        0.03116039        1.15000000        1.12548804
    10.28491960       61.82006885        0.17063604        0.03009863        1.15000000        1.12497621
    10.34226504       61.84966069        0.17230083        0.02904586        1.15000000        1.12446491
    10.39877534       61.87925254        0.17394933        0.02800178        1.15000000        1.12395415
    10.45447837       61.90884439        0.17558205        0.02696611        1.15000000        1.12344393
    10.50940049       61.93843623        0.17719946        0.02593858        1.15000000        1.12293424
    10.56356669       61.96802808        0.17880203        0.02491894        1.15000000        1.12242508
    10.61700064       61.99761992        0.18039019        0.02390694        1.15000000        1.12191646
    10.66972485       62.02721177        0.18196435        0.02290236        1.15000000        1.12140837
    10.72176066       62.05680361        0.18352492        0.02190498        1.15000000        1.12090081
    10.77312844       62.08639546        0.18507227        0.02091458        1.15000000        1.12039379
    10.82384751       62.11598731        0.18660676        0.01993098        1.15000000        1.11988730
    10.87393633       62.14557915        0.18812873        0.01895397        1.15000000        1.11938134
    10.92341246       62.17517100        0.18963852        0.01798338        1.15000000        1.11887592
    10.97229270       62.20476284        0.19113642        0.01701903        1.15000000        1.11837102
    11.02059306       62.23435469        0.19262275        0.01606076        1.15000000        1.11786666
    11.06832888       62.26394654        0.19409780        0.01510841        1.15000000        1.11736283
    11.11551479       62.29353838        0.19556184        0.01416182        1.15000000        1.11685953
    11.16216485       62.32313023        0.19701513        0.01322085        1.15000000        1.11635676
    11.20829248       62.35272207        0.19845793        0.01228537        1.15000000        1.11585452
    11.25391054       62.38231392        0.19989048        0.01135522        1.15000000        1.11535281
    11.29903141       62.41190576        0.20131301        0.01043029        1.15000000        1.11485163
    11.34366693       62.44149761        0.20272576        0.00951045        1.15000000        1.11435097
    11.38782850       62.47108946        0.20412894        0.00859558        1.15000000        1.11385085
    11.43152704       62.50068130        0.20552276        0.00768557        1.15000000        1.11335126
    11.47477308       62.53027315        0.20690742        0.00678030        1.15000000        1.11285220
    11.51757672       62.55986499        0.20828311        0.00587967        1.15000000        1.11235366
    11.55994772       62.58945684        0.20965002        0.00498357        1.15000000        1.11185565
    11.60189543       62.61904868        0.21100833        0.00409190        1.15000000        1.11135817
    11.64342890       62.64864053        0.21235821        0.00320458        1.15000000        1.11086122
    11.68455684       62.67823238        0.21369983        0.00232150        1.15000000        1.11036480
    11.72528763       62.70782422        0.21503336        0.00144258        1.15000000        1.10986890
    11.76562939       62.73741607        0.21635895        0.00056773        1.15000000        1.10937353
    11.80558993       62.76700791        0.21767675       -0.00030313        1.15000000        1.10887868
    11.84517680       62.79659976        0.21898691       -0.00117008        1.15000000        1.10838436
    11.88439729       62.82619161        0.22028957       -0.00203321        1.15000000        1.10789057
    11.92325848       62.85578345        0.22158487       -0.00289258        1.15000000        1.10739730
    11.96176716       62.88537530        0.22287294       -0.00374826        1.15000000        1.10690456
    11.99992993       62.91496714        0.22415390       -0.00460034        1.15000000        1.10641235
    12.03775319       62.94455899        0.22542790       -0.00544888        1.15000000        1.10592066
    12.07524310       62.97415083        0.22669503       -0.00629394        1.15000000        1.10542949
    12.11240566       63.00374268        0.22795543       -0.00713559        1.15000000        1.10493885
    12.14924665       63.03333453        0.22920920       -0.00797389        1.15000000        1.10444873
    12.18577170       63.06292637        0.23045645       -0.00880890        1.15000000        1.10395914
    12.22198626       63.09251822        0.23169730       -0.00964069        1.15000000        1.10347007
    12.25789560       63.12211006        0.23293185       -0.01046929        1.15000000        1.10298152
    12.29350484       63.15170191        0.23416019       -0.01129479        1.15000000        1.10249350
    12.32881897       63.18129375        0.23538243       -0.01211721        1.15000000        1.10200600
    12.36384280       63.21088560        0.23659866       -0.01293663        1.15000000        1.10151902
    12.39858103       63.24047745        0.23780898       -0.01375308        1.15000000        1.10103257
    12.43303820       63.27006929        0.23901346       -0.01456662        1.15000000        1.10054663
    12.46721875       63.29966114        0.24021221       -0.01537730        1.15000000        1.10006122
    12.50112696       63.32925298        0.24140531       -0.01618515        1.15000000        1.09957634
    12.53476702       63.35884483        0.24259283       -0.01699024        1.15000000        1.09909197
    12.56814300       63.38843668        0.24377487       -0.01779260        1.15000000        1.09860813
    12.60125884       63.41802852        0.24495149       -0.01859227        1.15000000        1.09812480
    12.63411839       63.44762037        0.24612278       -0.01938929        1.15000000        1.09764200
    12.66672540       63.47721221        0.24728881       -0.02018371        1.15000000        1.09715972
    12.69908351       63.50680406        0.24844965       -0.02097557        1.15000000        1.09667796
    12.73119626       63.53639590        0.24960538       -0.02176490        1.15000000        1.09619672
    12.76306712       63.56598775        0.25075606       -0.02255175        1.15000000        1.09571599
    12.79469946       63.59557960        0.25190176       -0.02333614        1.15000000        1.09523579
    12.82609654       63.62517144        0.25304254       -0.02411811        1.15000000        1.09475611
    12.85726159       63.65476329        0.25417848       -0.02489771        1.15000000        1.09427695
    12.88819768       63.68435513        0.25530963       -0.02567495        1.15000000        1.09379831
    12.91890789       63.71394698        0.25643605       -0.02644989        1.15000000        1.09332019
    12.94939518       63.74353883        0.25755780       -0.02722253        1.15000000        1.09284258
    12.97966243       63.77313067        0.25867495       -0.02799293        1.15000000        1.09236550
    13.00971245       63.80272252        0.25978754       -0.02876111        1.15000000        1.09188893
    13.03954802       63.83231436        0.26089563       -0.02952709        1.15000000        1.09141288
    13.06917182       63.86190621        0.26199929       -0.03029092        1.15000000        1.09093735
    13.09858647       63.89149805        0.26309855       -0.03105261        1.15000000        1.09046234
    13.12779454       63.92108990        0.26419348       -0.03181220        1.15000000        1.08998785
    13.15679852       63.95068175        0.26528412       -0.03256970        1.15000000        1.08951387
    13.18560087       63.98027359        0.26637052       -0.03332516        1.15000000        1.08904041
    13.21420397       64.00986544        0.26745273       -0.03407859        1.15000000        1.08856747
    13.24261015       64.03945728        0.26853080       -0.03483002        1.15000000        1.08809504
    13.27082171       64.06904913        0.26960477       -0.03557947        1.15000000        1.08762313
    13.29884087       64.09864097        0.27067469       -0.03632697        1.15000000        1.08715174
    13.32666981       64.12823282        0.27174061       -0.03707255        1.15000000        1.08668086
    13.35431067       64.15782467        0.27280256       -0.03781621        1.15000000        1.08621051
    13.38176553       64.18741651        0.27386059       -0.03855800        1.15000000        1.08574066
    13.40903643       64.21700836        0.27491474       -0.03929792        1.15000000        1.08527133
    13.43612538       64.24660020        0.27596505       -0.04003601        1.15000000        1.08480252
    13.46303432       64.27619205        0.27701156       -0.04077228        1.15000000        1.08433423
    13.48976517       64.30578390        0.27805431       -0.04150675        1.15000000        1.08386645
    13.51631980       64.33537574        0.27909334       -0.04223944        1.15000000        1.08339918
    13.54270006       64.36496759        0.28012868       -0.04297038        1.15000000        1.08293243
    13.56890772       64.39455943        0.28116038       -0.04369958        1.15000000        1.08246620
    13.59494454       64.42415128        0.28218846       -0.04442706        1.15000000        1.08200047
    13.62081225       64.45374312        0.28321297       -0.04515284        1.15000000        1.08153527
    13.64651255       64.48333497        0.28423393       -0.04587693        1.15000000        1.08107058
    13.67204707       64.51292682        0.28525138       -0.04659936        1.15000000        1.08060640
    13.69741744       64.54251866        0.28626536       -0.04732015        1.15000000        1.08014274
    13.72262525       64.57211051        0.28727589       -0.04803930        1.15000000        1.07967959
    13.74767204       64.60170235        0.28828301       -0.04875684        1.15000000        1.07921695
    13.77255936       64.63129420        0.28928675       -0.04947278        1.15000000        1.07875483
    13.79728869       64.66088604        0.29028713       -0.05018714        1.15000000        1.07829322
    13.82186149       64.69047789        0.29128420       -0.05089993        1.15000000        1.07783212
    13.84627920       64.72006974        0.29227798       -0.05161117        1.15000000        1.07737154
    13.87054324       64.74966158        0.29326849       -0.05232088        1.15000000        1.07691147
    13.89465499       64.77925343        0.29425577       -0.05302906        1.15000000        1.07645192
    13.91861580       64.80884527        0.29523985       -0.05373574        1.15000000        1.07599287
    13.94242700       64.83843712        0.29622074       -0.05444093        1.15000000        1.07553434
    13.96608991       64.86802897        0.29719848       -0.05514463        1.15000000        1.07507632
    13.98960579       64.89762081        0.29817310       -0.05584687        1.15000000        1.07461882
    14.01297593       64.92721266        0.29914462       -0.05654766        1.15000000        1.07416182
    14.03620154       64.95680450        0.30011306       -0.05724701        1.15000000        1.07370534
    14.05928382       64.98639635        0.30107845       -0.05794493        1.15000000        1.07324937
    14.08222399       65.01598819        0.30204082       -0.05864144        1.15000000        1.07279391
    14.10502321       65.04558004        0.30300018       -0.05933655        1.15000000        1.07233896
    14.12768262       65.07517189        0.30395657       -0.06003026        1.15000000        1.07188453
    14.15020335       65.10476373        0.30491001       -0.06072260        1.15000000        1.07143060
    14.17258650       65.13435558        0.30586051       -0.06141358        1.15000000        1.07097719
    14.19483317       65.16394742        0.30680810       -0.06210319        1.15000000        1.07052429
    14.21694443       65.19353927        0.30775280       -0.06279146        1.15000000        1.07007190
    14.23892131       65.22313111        0.30869464       -0.06347840        1.15000000        1.06962001
    14.26076486       65.25272296        0.30963363       -0.06416402        1.15000000        1.06916864
    14.28247608       65.28231481        0.31056980       -0.06484832        1.15000000        1.06871779
    14.30405598       65.31190665        0.31150316       -0.06553132        1.15000000        1.06826744
    14.32550553       65.34149850        0.31243374       -0.06621303        1.15000000        1.06781760
    14.34682570       65.37109034        0.31336156       -0.06689346        1.15000000        1.06736827
    14.36801742       65.40068219        0.31428663       -0.06757261        1.15000000        1.06691945
    14.38908163       65.43027404        0.31520898       -0.06825050        1.15000000        1.06647114
    14.41001924       65.45986588        0.31612862       -0.06892714        1.15000000        1.06602334
    14.43083117       65.48945773        0.31704558       -0.06960253        1.15000000        1.06557606
    14.45151827       65.51904957        0.31795986       -0.07027669        1.15000000        1.06512928
    14.47208143       65.54864142        0.31887149       -0.07094962        1.15000000        1.06468301
    14.49252150       65.57823326        0.31978049       -0.07162133        1.15000000        1.06423725
    14.51283932       65.60782511        0.32068687       -0.07229183        1.15000000        1.06379200
    14.53303573       65.63741696        0.32159065       -0.07296113        1.15000000        1.06334725
    14.55311152       65.66700880        0.32249185       -0.07362923        1.15000000        1.06290302
    14.57306752       65.69660065        0.32339048       -0.07429615        1.15000000        1.06245930
    14.59290449       65.72619249        0.32428656       -0.07496189        1.15000000        1.06201608
