#  Theta paroi en deg Angle Choc en deg       Kp           Inverse Mach       Mach amont       Mach aval
     0.00000000       20.61659038        0.00000000        0.64788732        2.84000000
     1.65746365       20.61867188        0.00471257        0.64573607        2.84000000        2.83985192
     2.00034013       20.62158427        0.00645238        0.64495016        2.84000000        2.83964478
     2.36891524       20.62698933        0.00854121        0.64401236        2.84000000        2.83926046
     2.76642196       20.63654882        0.01102829        0.64290377        2.84000000        2.83858112
     3.17709125       20.65192453        0.01383567        0.64166264        2.84000000        2.83748946
     3.59169065       20.67477822        0.01690074        0.64031965        2.84000000        2.83586916
     4.00683261       20.70677168        0.02019074        0.63889173        2.84000000        2.83360543
     4.42218649       20.74956669        0.02369458        0.63738603        2.84000000        2.83058570
     4.83882903       20.80482500        0.02741536        0.63580353        2.84000000        2.82670036
     5.25844272       20.87420841        0.03136555        0.63414134        2.84000000        2.82184368
     5.60977167       20.94359182        0.03482622        0.63269974        2.84000000        2.81701090
     5.91680561       21.01297523        0.03796320        0.63140437        2.84000000        2.81220163
     6.19249276       21.08235864        0.04086842        0.63021405        2.84000000        2.80741549
     6.44468324       21.15174205        0.04359877        0.62910334        2.84000000        2.80265210
     6.67852495       21.22112546        0.04619216        0.62805527        2.84000000        2.79791108
     6.89759110       21.29050887        0.04867528        0.62705793        2.84000000        2.79319207
     7.10447143       21.35989228        0.05106767        0.62610256        2.84000000        2.78849472
     7.30110748       21.42927569        0.05338413        0.62518256        2.84000000        2.78381868
     7.48899542       21.49865910        0.05563616        0.62429276        2.84000000        2.77916361
     7.66931448       21.56804251        0.05783288        0.62342910        2.84000000        2.77452918
     7.84301195       21.63742592        0.05998166        0.62258825        2.84000000        2.76991505
     8.01086114       21.70680933        0.06208857        0.62176752        2.84000000        2.76532091
     8.17350224       21.77619274        0.06415862        0.62096462        2.84000000        2.76074644
     8.33147161       21.84557615        0.06619606        0.62017767        2.84000000        2.75619134
     8.48522355       21.91495956        0.06820447        0.61940504        2.84000000        2.75165530
     8.63514641       21.98434297        0.07018695        0.61864533        2.84000000        2.74713803
     8.78157501       22.05372638        0.07214616        0.61789734        2.84000000        2.74263924
     8.92480022       22.12310979        0.07408441        0.61716002        2.84000000        2.73815865
     9.06507642       22.19249320        0.07600374        0.61643244        2.84000000        2.73369597
     9.20262748       22.26187661        0.07790594        0.61571379        2.84000000        2.72925093
     9.33765157       22.33126001        0.07979259        0.61500334        2.84000000        2.72482327
     9.47032494       22.40064342        0.08166511        0.61430045        2.84000000        2.72041273
     9.60080515       22.47002683        0.08352475        0.61360454        2.84000000        2.71601904
     9.72923367       22.53941024        0.08537264        0.61291507        2.84000000        2.71164196
     9.85573798       22.60879365        0.08720982        0.61223159        2.84000000        2.70728124
     9.98043348       22.67817706        0.08903720        0.61155366        2.84000000        2.70293664
    10.10342489       22.74756047        0.09085562        0.61088089        2.84000000        2.69860791
    10.22480762       22.81694388        0.09266584        0.61021292        2.84000000        2.69429483
    10.34466887       22.88632729        0.09446855        0.60954943        2.84000000        2.68999717
    10.46308849       22.95571070        0.09626439        0.60889011        2.84000000        2.68571471
    10.58013989       23.02509411        0.09805394        0.60823469        2.84000000        2.68144722
    10.69589067       23.09447752        0.09983775        0.60758292        2.84000000        2.67719448
    10.81040322       23.16386093        0.10161630        0.60693454        2.84000000        2.67295630
    10.92373530       23.23324434        0.10339004        0.60628936        2.84000000        2.66873245
    11.03594045       23.30262775        0.10515941        0.60564716        2.84000000        2.66452275
    11.14706841       23.37201116        0.10692478        0.60500774        2.84000000        2.66032698
    11.25716552       23.44139457        0.10868653        0.60437094        2.84000000        2.65614495
    11.36627496       23.51077798        0.11044499        0.60373659        2.84000000        2.65197647
    11.47443707       23.58016139        0.11220047        0.60310453        2.84000000        2.64782135
    11.58168961       23.64954480        0.11395326        0.60247461        2.84000000        2.64367940
    11.68806797       23.71892821        0.11570364        0.60184670        2.84000000        2.63955045
    11.79360535       23.78831162        0.11745186        0.60122067        2.84000000        2.63543432
    11.89833297       23.85769503        0.11919816        0.60059639        2.84000000        2.63133082
    12.00228021       23.92707844        0.12094277        0.59997376        2.84000000        2.62723980
    12.10547473       23.99646185        0.12268589        0.59935265        2.84000000        2.62316107
    12.20794270       24.06584526        0.12442772        0.59873298        2.84000000        2.61909449
    12.30970877       24.13522866        0.12616844        0.59811463        2.84000000        2.61503987
    12.41079627       24.20461207        0.12790824        0.59749753        2.84000000        2.61099707
    12.51122733       24.27399548        0.12964726        0.59688158        2.84000000        2.60696592
    12.61102288       24.34337889        0.13138568        0.59626669        2.84000000        2.60294628
    12.71020280       24.41276230        0.13312363        0.59565279        2.84000000        2.59893799
    12.80878597       24.48214571        0.13486124        0.59503981        2.84000000        2.59494091
    12.90679033       24.55152912        0.13659866        0.59442766        2.84000000        2.59095488
    13.00423297       24.62091253        0.13833600        0.59381629        2.84000000        2.58697978
    13.10113013       24.69029594        0.14007338        0.59320562        2.84000000        2.58301544
    13.19749733       24.75967935        0.14181090        0.59259559        2.84000000        2.57906175
    13.29334934       24.82906276        0.14354868        0.59198614        2.84000000        2.57511856
    13.38870029       24.89844617        0.14528681        0.59137721        2.84000000        2.57118574
    13.48356367       24.96782958        0.14702538        0.59076876        2.84000000        2.56726317
    13.57795236       25.03721299        0.14876449        0.59016071        2.84000000        2.56335070
    13.67187871       25.10659640        0.15050421        0.58955304        2.84000000        2.55944822
    13.76535454       25.17597981        0.15224462        0.58894567        2.84000000        2.55555560
    13.85839115       25.24536322        0.15398581        0.58833858        2.84000000        2.55167273
    13.95099943       25.31474663        0.15572784        0.58773170        2.84000000        2.54779948
    14.04318976       25.38413004        0.15747078        0.58712500        2.84000000        2.54393573
    14.13497217       25.45351345        0.15921470        0.58651844        2.84000000        2.54008138
    14.22635623       25.52289686        0.16095965        0.58591197        2.84000000        2.53623630
    14.31735117       25.59228027        0.16270570        0.58530556        2.84000000        2.53240038
    14.40796589       25.66166368        0.16445290        0.58469917        2.84000000        2.52857353
    14.49820892       25.73104709        0.16620131        0.58409276        2.84000000        2.52475562
    14.58808848       25.80043050        0.16795098        0.58348629        2.84000000        2.52094656
    14.67761248       25.86981391        0.16970194        0.58287974        2.84000000        2.51714624
    14.76678856       25.93919731        0.17145426        0.58227306        2.84000000        2.51335457
    14.85562407       26.00858072        0.17320797        0.58166623        2.84000000        2.50957143
    14.94412612       26.07796413        0.17496312        0.58105921        2.84000000        2.50579673
    15.03230155       26.14734754        0.17671973        0.58045198        2.84000000        2.50203037
    15.12015699       26.21673095        0.17847786        0.57984451        2.84000000        2.49827227
    15.20769880       26.28611436        0.18023754        0.57923676        2.84000000        2.49452233
    15.29493317       26.35549777        0.18199880        0.57862871        2.84000000        2.49078044
    15.38186606       26.42488118        0.18376167        0.57802033        2.84000000        2.48704654
    15.46850326       26.49426459        0.18552619        0.57741160        2.84000000        2.48332052
    15.55485034       26.56364800        0.18729237        0.57680250        2.84000000        2.47960230
    15.64091270       26.63303141        0.18906027        0.57619298        2.84000000        2.47589180
    15.72669558       26.70241482        0.19082989        0.57558305        2.84000000        2.47218893
    15.81220406       26.77179823        0.19260126        0.57497266        2.84000000        2.46849360
    15.89744304       26.84118164        0.19437441        0.57436179        2.84000000        2.46480574
    15.98241728       26.91056505        0.19614936        0.57375043        2.84000000        2.46112527
    16.06713142       26.97994846        0.19792613        0.57313856        2.84000000        2.45745211
    16.15158991       27.04933187        0.19970474        0.57252615        2.84000000        2.45378617
    16.23579712       27.11871528        0.20148522        0.57191317        2.84000000        2.45012740
    16.31975726       27.18809869        0.20326758        0.57129962        2.84000000        2.44647570
    16.40347441       27.25748210        0.20505183        0.57068547        2.84000000        2.44283101
    16.48695258       27.32686551        0.20683800        0.57007070        2.84000000        2.43919326
    16.57019562       27.39624892        0.20862610        0.56945530        2.84000000        2.43556237
    16.65320729       27.46563233        0.21041615        0.56883924        2.84000000        2.43193827
    16.73599122       27.53501574        0.21220816        0.56822251        2.84000000        2.42832091
    16.81855100       27.60439915        0.21400214        0.56760509        2.84000000        2.42471020
    16.90089005       27.67378256        0.21579810        0.56698696        2.84000000        2.42110608
    16.98301175       27.74316596        0.21759606        0.56636810        2.84000000        2.41750849
    17.06491937       27.81254937        0.21939603        0.56574851        2.84000000        2.41391737
    17.14661608       27.88193278        0.22119802        0.56512816        2.84000000        2.41033264
    17.22810499       27.95131619        0.22300204        0.56450704        2.84000000        2.40675426
    17.30938912       28.02069960        0.22480810        0.56388513        2.84000000        2.40318215
    17.39047140       28.09008301        0.22661620        0.56326241        2.84000000        2.39961626
    17.47135471       28.15946642        0.22842636        0.56263888        2.84000000        2.39605653
    17.55204183       28.22884983        0.23023858        0.56201451        2.84000000        2.39250289
    17.63253549       28.29823324        0.23205287        0.56138930        2.84000000        2.38895530
    17.71283834       28.36761665        0.23386923        0.56076323        2.84000000        2.38541370
    17.79295297       28.43700006        0.23568768        0.56013628        2.84000000        2.38187803
    17.87288192       28.50638347        0.23750821        0.55950844        2.84000000        2.37834824
    17.95262763       28.57576688        0.23933084        0.55887971        2.84000000        2.37482428
    18.03219252       28.64515029        0.24115556        0.55825005        2.84000000        2.37130608
    18.11157893       28.71453370        0.24298238        0.55761947        2.84000000        2.36779361
    18.19078916       28.78391711        0.24481131        0.55698795        2.84000000        2.36428680
    18.26982544       28.85330052        0.24664234        0.55635547        2.84000000        2.36078562
    18.34868996       28.92268393        0.24847549        0.55572203        2.84000000        2.35729000
    18.42738485       28.99206734        0.25031075        0.55508761        2.84000000        2.35379991
    18.50591220       29.06145075        0.25214812        0.55445220        2.84000000        2.35031529
    18.58427405       29.13083416        0.25398761        0.55381579        2.84000000        2.34683609
    18.66247239       29.20021757        0.25582922        0.55317836        2.84000000        2.34336228
    18.74050916       29.26960098        0.25767294        0.55253991        2.84000000        2.33989381
    18.81838628       29.33898439        0.25951879        0.55190043        2.84000000        2.33643062
    18.89610559       29.40836780        0.26136676        0.55125989        2.84000000        2.33297269
    18.97366893       29.47775121        0.26321685        0.55061830        2.84000000        2.32951996
    19.05107807       29.54713461        0.26506906        0.54997564        2.84000000        2.32607238
    19.12833477       29.61651802        0.26692339        0.54933190        2.84000000        2.32262993
    19.20544071       29.68590143        0.26877984        0.54868707        2.84000000        2.31919256
    19.28239758       29.75528484        0.27063841        0.54804114        2.84000000        2.31576023
    19.35920700       29.82466825        0.27249909        0.54739410        2.84000000        2.31233289
    19.43587057       29.89405166        0.27436189        0.54674593        2.84000000        2.30891051
    19.51238986       29.96343507        0.27622681        0.54609664        2.84000000        2.30549305
    19.58876640       30.03281848        0.27809384        0.54544620        2.84000000        2.30208048
    19.66500169       30.10220189        0.27996298        0.54479461        2.84000000        2.29867275
    19.74109721       30.17158530        0.28183422        0.54414187        2.84000000        2.29526982
    19.81705438       30.24096871        0.28370757        0.54348795        2.84000000        2.29187167
    19.89287464       30.31035212        0.28558302        0.54283285        2.84000000        2.28847826
    19.96855934       30.37973553        0.28746058        0.54217656        2.84000000        2.28508955
    20.04410986       30.44911894        0.28934022        0.54151907        2.84000000        2.28170550
    20.11952751       30.51850235        0.29122196        0.54086037        2.84000000        2.27832608
    20.19481361       30.58788576        0.29310579        0.54020046        2.84000000        2.27495127
    20.26996943       30.65726917        0.29499171        0.53953932        2.84000000        2.27158102
    20.34499620       30.72665258        0.29687970        0.53887695        2.84000000        2.26821530
    20.41989517       30.79603599        0.29876977        0.53821333        2.84000000        2.26485409
    20.49466754       30.86541940        0.30066192        0.53754845        2.84000000        2.26149734
    20.56931449       30.93480281        0.30255613        0.53688232        2.84000000        2.25814504
    20.64383716       31.00418622        0.30445240        0.53621491        2.84000000        2.25479714
    20.71823670       31.07356963        0.30635074        0.53554623        2.84000000        2.25145362
    20.79251423       31.14295304        0.30825112        0.53487626        2.84000000        2.24811445
    20.86667082       31.21233645        0.31015356        0.53420499        2.84000000        2.24477960
    20.94070756       31.28171986        0.31205804        0.53353241        2.84000000        2.24144905
    21.01462550       31.35110327        0.31396456        0.53285853        2.84000000        2.23812275
    21.08842567       31.42048667        0.31587310        0.53218332        2.84000000        2.23480070
    21.16210908       31.48987008        0.31778368        0.53150678        2.84000000        2.23148285
    21.23567672       31.55925349        0.31969627        0.53082891        2.84000000        2.22816918
    21.30912958       31.62863690        0.32161088        0.53014969        2.84000000        2.22485966
    21.38246861       31.69802031        0.32352750        0.52946911        2.84000000        2.22155428
    21.45569475       31.76740372        0.32544613        0.52878718        2.84000000        2.21825300
    21.52880892       31.83678713        0.32736674        0.52810387        2.84000000        2.21495580
    21.60181204       31.90617054        0.32928935        0.52741918        2.84000000        2.21166264
    21.67470499       31.97555395        0.33121394        0.52673311        2.84000000        2.20837352
    21.74748865       32.04493736        0.33314051        0.52604565        2.84000000        2.20508841
    21.82016388       32.11432077        0.33506904        0.52535679        2.84000000        2.20180727
    21.89273152       32.18370418        0.33699954        0.52466651        2.84000000        2.19853009
    21.96519241       32.25308759        0.33893200        0.52397482        2.84000000        2.19525684
    22.03754735       32.32247100        0.34086640        0.52328170        2.84000000        2.19198751
    22.10979715       32.39185441        0.34280275        0.52258716        2.84000000        2.18872206
    22.18194259       32.46123782        0.34474103        0.52189117        2.84000000        2.18546048
    22.25398445       32.53062123        0.34668124        0.52119374        2.84000000        2.18220275
    22.32592348       32.60000464        0.34862336        0.52049485        2.84000000        2.17894884
    22.39776044       32.66938805        0.35056740        0.51979450        2.84000000        2.17569873
    22.46949604       32.73877146        0.35251335        0.51909267        2.84000000        2.17245241
    22.54113102       32.80815487        0.35446119        0.51838938        2.84000000        2.16920984
    22.61266609       32.87753828        0.35641092        0.51768459        2.84000000        2.16597102
    22.68410194       32.94692169        0.35836253        0.51697832        2.84000000        2.16273592
    22.75543925       33.01630510        0.36031601        0.51627054        2.84000000        2.15950452
    22.82667870       33.08568851        0.36227136        0.51556126        2.84000000        2.15627681
