#  Theta paroi en deg Angle Choc en deg       Kp           Inverse Mach       Mach amont       Mach aval
     0.00000000       46.43871552        0.00000000        0.27536232        1.38000000
     2.19146838       46.44002236        0.01030134        0.27019872        1.38000000        1.37996383
     2.55369712       46.44185086        0.01340957        0.26863684        1.38000000        1.37991321
     2.97719770       46.44524433        0.01744150        0.26660805        1.38000000        1.37981929
     3.45307237       46.45124611        0.02245132        0.26408282        1.38000000        1.37965321
     3.95397542       46.46089951        0.02823836        0.26115962        1.38000000        1.37938614
     4.46262152       46.47524784        0.03462255        0.25792689        1.38000000        1.37898933
     4.97073677       46.49533443        0.04148391        0.25444305        1.38000000        1.37843412
     5.47496628       46.52220260        0.04874841        0.25074350        1.38000000        1.37769202
     5.97435625       46.55689567        0.05637201        0.24684854        1.38000000        1.37673471
     6.46908717       46.60045695        0.06432991        0.24276868        1.38000000        1.37553417
     6.87600761       46.64401824        0.07116857        0.23925078        1.38000000        1.37433527
     7.22570270       46.68757952        0.07725176        0.23611207        1.38000000        1.37313799
     7.53476195       46.73114081        0.08278375        0.23324986        1.38000000        1.37194234
     7.81327942       46.77470209        0.08789231        0.23059992        1.38000000        1.37074830
     8.06789328       46.81826338        0.09266336        0.22811903        1.38000000        1.36955587
     8.30322182       46.86182466        0.09715784        0.22577655        1.38000000        1.36836505
     8.52261860       46.90538595        0.10142075        0.22354983        1.38000000        1.36717583
     8.72860213       46.94894723        0.10548640        0.22142162        1.38000000        1.36598820
     8.92311596       46.99250852        0.10938159        0.21937842        1.38000000        1.36480217
     9.10769400       47.03606980        0.11312773        0.21740946        1.38000000        1.36361772
     9.28356988       47.07963108        0.11674225        0.21550597        1.38000000        1.36243485
     9.45175181       47.12319237        0.12023951        0.21366072        1.38000000        1.36125356
     9.61307520       47.16675365        0.12363153        0.21186765        1.38000000        1.36007383
     9.76824072       47.21031494        0.12692847        0.21012166        1.38000000        1.35889567
     9.91784231       47.25387622        0.13013900        0.20841836        1.38000000        1.35771907
    10.06238812       47.29743751        0.13327062        0.20675399        1.38000000        1.35654402
    10.20231662       47.34099879        0.13632983        0.20512527        1.38000000        1.35537052
    10.33800897       47.38456008        0.13932230        0.20352935        1.38000000        1.35419857
    10.46979878       47.42812136        0.14225305        0.20196369        1.38000000        1.35302815
    10.59797988       47.47168264        0.14512652        0.20042606        1.38000000        1.35185927
    10.72281248       47.51524393        0.14794664        0.19891447        1.38000000        1.35069192
    10.84452819       47.55880521        0.15071697        0.19742714        1.38000000        1.34952610
    10.96333419       47.60236650        0.15344066        0.19596247        1.38000000        1.34836179
    11.07941660       47.64592778        0.15612059        0.19451901        1.38000000        1.34719900
    11.19294324       47.68948907        0.15875935        0.19309545        1.38000000        1.34603772
    11.30406608       47.73305035        0.16135930        0.19169061        1.38000000        1.34487795
    11.41292316       47.77661164        0.16392259        0.19030339        1.38000000        1.34371967
    11.51964029       47.82017292        0.16645120        0.18893281        1.38000000        1.34256290
    11.62433245       47.86373420        0.16894692        0.18757795        1.38000000        1.34140761
    11.72710509       47.90729549        0.17141143        0.18623797        1.38000000        1.34025381
    11.82805512       47.95085677        0.17384624        0.18491210        1.38000000        1.33910150
    11.92727182       47.99441806        0.17625279        0.18359962        1.38000000        1.33795066
    12.02483769       48.03797934        0.17863237        0.18229987        1.38000000        1.33680130
    12.12082908       48.08154063        0.18098621        0.18101223        1.38000000        1.33565340
    12.21531680       48.12510191        0.18331545        0.17973613        1.38000000        1.33450697
    12.30836669       48.16866320        0.18562113        0.17847103        1.38000000        1.33336200
    12.40004007       48.21222448        0.18790425        0.17721644        1.38000000        1.33221849
    12.49039413       48.25578577        0.19016572        0.17597190        1.38000000        1.33107643
    12.57948230       48.29934705        0.19240641        0.17473695        1.38000000        1.32993581
    12.66735465       48.34290833        0.19462713        0.17351119        1.38000000        1.32879664
    12.75405804       48.38646962        0.19682865        0.17229423        1.38000000        1.32765891
    12.83963653       48.43003090        0.19901167        0.17108572        1.38000000        1.32652261
    12.92413150       48.47359219        0.20117688        0.16988531        1.38000000        1.32538774
    13.00758194       48.51715347        0.20332491        0.16869267        1.38000000        1.32425430
    13.09002457       48.56071476        0.20545635        0.16750750        1.38000000        1.32312227
    13.17149408       48.60427604        0.20757179        0.16632951        1.38000000        1.32199167
    13.25202323       48.64783733        0.20967176        0.16515843        1.38000000        1.32086248
    13.33164301       48.69139861        0.21175676        0.16399399        1.38000000        1.31973470
    13.41038278       48.73495989        0.21382728        0.16283596        1.38000000        1.31860832
    13.48827035       48.77852118        0.21588378        0.16168410        1.38000000        1.31748335
    13.56533215       48.82208246        0.21792670        0.16053818        1.38000000        1.31635977
    13.64159323       48.86564375        0.21995645        0.15939799        1.38000000        1.31523759
    13.71707747       48.90920503        0.22197342        0.15826333        1.38000000        1.31411680
    13.79180755       48.95276632        0.22397800        0.15713402        1.38000000        1.31299739
    13.86580509       48.99632760        0.22597054        0.15600985        1.38000000        1.31187936
    13.93909067       49.03988889        0.22795139        0.15489067        1.38000000        1.31076271
    14.01168397       49.08345017        0.22992087        0.15377630        1.38000000        1.30964744
    14.08360376       49.12701145        0.23187929        0.15266659        1.38000000        1.30853353
    14.15486795       49.17057274        0.23382696        0.15156137        1.38000000        1.30742099
    14.22549370       49.21413402        0.23576415        0.15046050        1.38000000        1.30630982
    14.29549741       49.25769531        0.23769116        0.14936384        1.38000000        1.30520000
    14.36489479       49.30125659        0.23960823        0.14827126        1.38000000        1.30409154
    14.43370087       49.34481788        0.24151562        0.14718263        1.38000000        1.30298443
    14.50193012       49.38837916        0.24341357        0.14609781        1.38000000        1.30187866
    14.56959634       49.43194045        0.24530231        0.14501670        1.38000000        1.30077425
    14.63671284       49.47550173        0.24718208        0.14393917        1.38000000        1.29967117
    14.70329238       49.51906302        0.24905307        0.14286512        1.38000000        1.29856942
    14.76934722       49.56262430        0.25091550        0.14179443        1.38000000        1.29746902
    14.83488915       49.60618558        0.25276957        0.14072702        1.38000000        1.29636994
    14.89992951       49.64974687        0.25461547        0.13966276        1.38000000        1.29527218
    14.96447923       49.69330815        0.25645338        0.13860158        1.38000000        1.29417575
    15.02854883       49.73686944        0.25828347        0.13754338        1.38000000        1.29308064
    15.09214843       49.78043072        0.26010593        0.13648807        1.38000000        1.29198685
    15.15528780       49.82399201        0.26192091        0.13543556        1.38000000        1.29089437
    15.21797637       49.86755329        0.26372857        0.13438578        1.38000000        1.28980319
    15.28022321       49.91111458        0.26552907        0.13333864        1.38000000        1.28871332
    15.34203713       49.95467586        0.26732255        0.13229406        1.38000000        1.28762476
    15.40342656       49.99823714        0.26910916        0.13125196        1.38000000        1.28653749
    15.46439971       50.04179843        0.27088904        0.13021229        1.38000000        1.28545152
    15.52496448       50.08535971        0.27266232        0.12917496        1.38000000        1.28436684
    15.58512853       50.12892100        0.27442913        0.12813991        1.38000000        1.28328345
    15.64489925       50.17248228        0.27618959        0.12710708        1.38000000        1.28220134
    15.70428380       50.21604357        0.27794383        0.12607639        1.38000000        1.28112052
    15.76328911       50.25960485        0.27969196        0.12504779        1.38000000        1.28004097
    15.82192190       50.30316614        0.28143410        0.12402121        1.38000000        1.27896271
    15.88018866       50.34672742        0.28317035        0.12299660        1.38000000        1.27788571
    15.93809568       50.39028870        0.28490083        0.12197391        1.38000000        1.27680999
    15.99564908       50.43384999        0.28662563        0.12095307        1.38000000        1.27573553
    16.05285477       50.47741127        0.28834486        0.11993404        1.38000000        1.27466233
    16.10971850       50.52097256        0.29005861        0.11891675        1.38000000        1.27359040
    16.16624584       50.56453384        0.29176699        0.11790117        1.38000000        1.27251972
    16.22244219       50.60809513        0.29347007        0.11688725        1.38000000        1.27145030
    16.27831280       50.65165641        0.29516795        0.11587492        1.38000000        1.27038213
    16.33386278       50.69521770        0.29686071        0.11486416        1.38000000        1.26931521
    16.38909706       50.73877898        0.29854845        0.11385491        1.38000000        1.26824953
    16.44402047       50.78234027        0.30023123        0.11284713        1.38000000        1.26718509
    16.49863768       50.82590155        0.30190914        0.11184078        1.38000000        1.26612190
    16.55295324       50.86946283        0.30358226        0.11083581        1.38000000        1.26505994
    16.60697155       50.91302412        0.30525066        0.10983219        1.38000000        1.26399921
    16.66069694       50.95658540        0.30691442        0.10882988        1.38000000        1.26293972
    16.71413358       51.00014669        0.30857359        0.10782883        1.38000000        1.26188145
    16.76728554       51.04370797        0.31022826        0.10682902        1.38000000        1.26082441
    16.82015678       51.08726926        0.31187849        0.10583039        1.38000000        1.25976859
    16.87275117       51.13083054        0.31352434        0.10483293        1.38000000        1.25871399
    16.92507247       51.17439183        0.31516589        0.10383659        1.38000000        1.25766061
    16.97712432       51.21795311        0.31680318        0.10284134        1.38000000        1.25660844
    17.02891030       51.26151439        0.31843628        0.10184714        1.38000000        1.25555748
    17.08043388       51.30507568        0.32006525        0.10085397        1.38000000        1.25450773
    17.13169845       51.34863696        0.32169015        0.09986179        1.38000000        1.25345919
    17.18270733       51.39219825        0.32331103        0.09887057        1.38000000        1.25241185
    17.23346370       51.43575953        0.32492794        0.09788029        1.38000000        1.25136571
    17.28397074       51.47932082        0.32654094        0.09689091        1.38000000        1.25032077
    17.33423149       51.52288210        0.32815009        0.09590240        1.38000000        1.24927702
    17.38424894       51.56644339        0.32975542        0.09491473        1.38000000        1.24823447
    17.43402602       51.61000467        0.33135699        0.09392789        1.38000000        1.24719310
    17.48356557       51.65356595        0.33295485        0.09294184        1.38000000        1.24615293
    17.53287037       51.69712724        0.33454904        0.09195655        1.38000000        1.24511394
    17.58194313       51.74068852        0.33613961        0.09097200        1.38000000        1.24407613
    17.63078651       51.78424981        0.33772660        0.08998817        1.38000000        1.24303950
    17.67940309       51.82781109        0.33931006        0.08900502        1.38000000        1.24200405
    17.72779539       51.87137238        0.34089003        0.08802254        1.38000000        1.24096977
    17.77596589       51.91493366        0.34246655        0.08704071        1.38000000        1.23993666
    17.82391701       51.95849495        0.34403966        0.08605949        1.38000000        1.23890473
    17.87165111       52.00205623        0.34560940        0.08507887        1.38000000        1.23787396
    17.91917048       52.04561751        0.34717581        0.08409883        1.38000000        1.23684436
    17.96647738       52.08917880        0.34873892        0.08311934        1.38000000        1.23581592
    18.01357402       52.13274008        0.35029878        0.08214038        1.38000000        1.23478865
    18.06046256       52.17630137        0.35185541        0.08116193        1.38000000        1.23376253
    18.10714511       52.21986265        0.35340886        0.08018397        1.38000000        1.23273756
    18.15362371       52.26342394        0.35495916        0.07920648        1.38000000        1.23171375
    18.19990041       52.30698522        0.35650633        0.07822945        1.38000000        1.23069109
    18.24597716       52.35054651        0.35805043        0.07725285        1.38000000        1.22966958
    18.29185590       52.39410779        0.35959146        0.07627666        1.38000000        1.22864922
    18.33753853       52.43766908        0.36112948        0.07530086        1.38000000        1.22763000
    18.38302689       52.48123036        0.36266450        0.07432545        1.38000000        1.22661192
    18.42832280       52.52479164        0.36419656        0.07335039        1.38000000        1.22559498
    18.47342802       52.56835293        0.36572568        0.07237567        1.38000000        1.22457918
    18.51834431       52.61191421        0.36725190        0.07140128        1.38000000        1.22356452
    18.56307336       52.65547550        0.36877525        0.07042720        1.38000000        1.22255098
    18.60761683       52.69903678        0.37029574        0.06945341        1.38000000        1.22153858
    18.65197637       52.74259807        0.37181341        0.06847989        1.38000000        1.22052731
    18.69615355       52.78615935        0.37332829        0.06750664        1.38000000        1.21951717
    18.74014998       52.82972064        0.37484040        0.06653363        1.38000000        1.21850815
    18.78396716       52.87328192        0.37634976        0.06556085        1.38000000        1.21750025
    18.82760660       52.91684320        0.37785640        0.06458828        1.38000000        1.21649348
    18.87106979       52.96040449        0.37936034        0.06361591        1.38000000        1.21548782
    18.91435817       53.00396577        0.38086161        0.06264373        1.38000000        1.21448328
    18.95747314       53.04752706        0.38236023        0.06167171        1.38000000        1.21347985
    19.00041611       53.09108834        0.38385622        0.06069986        1.38000000        1.21247754
    19.04318844       53.13464963        0.38534961        0.05972815        1.38000000        1.21147634
    19.08579146       53.17821091        0.38684041        0.05875656        1.38000000        1.21047624
    19.12822647       53.22177220        0.38832865        0.05778510        1.38000000        1.20947726
    19.17049477       53.26533348        0.38981434        0.05681373        1.38000000        1.20847937
    19.21259762       53.30889476        0.39129752        0.05584246        1.38000000        1.20748259
    19.25453624       53.35245605        0.39277819        0.05487127        1.38000000        1.20648692
    19.29631185       53.39601733        0.39425639        0.05390014        1.38000000        1.20549234
    19.33792565       53.43957862        0.39573211        0.05292907        1.38000000        1.20449885
    19.37937880       53.48313990        0.39720540        0.05195803        1.38000000        1.20350646
    19.42067243       53.52670119        0.39867626        0.05098703        1.38000000        1.20251517
    19.46180769       53.57026247        0.40014471        0.05001605        1.38000000        1.20152497
    19.50278565       53.61382376        0.40161077        0.04904507        1.38000000        1.20053585
    19.54360743       53.65738504        0.40307445        0.04807409        1.38000000        1.19954783
    19.58427406       53.70094633        0.40453578        0.04710309        1.38000000        1.19856089
    19.62478660       53.74450761        0.40599477        0.04613207        1.38000000        1.19757503
    19.66514606       53.78806889        0.40745144        0.04516101        1.38000000        1.19659026
    19.70535346       53.83163018        0.40890580        0.04418991        1.38000000        1.19560657
    19.74540977       53.87519146        0.41035786        0.04321875        1.38000000        1.19462396
    19.78531597       53.91875275        0.41180765        0.04224752        1.38000000        1.19364242
    19.82507300       53.96231403        0.41325518        0.04127621        1.38000000        1.19266196
    19.86468181       54.00587532        0.41470046        0.04030482        1.38000000        1.19168258
    19.90414330       54.04943660        0.41614351        0.03933333        1.38000000        1.19070426
    19.94345838       54.09299789        0.41758434        0.03836173        1.38000000        1.18972702
    19.98262792       54.13655917        0.41902296        0.03739002        1.38000000        1.18875084
    20.02165281       54.18012045        0.42045940        0.03641819        1.38000000        1.18777574
    20.06053388       54.22368174        0.42189365        0.03544622        1.38000000        1.18680170
    20.09927198       54.26724302        0.42332574        0.03447411        1.38000000        1.18582872
