#  Theta paroi en deg Angle Choc en deg       Kp           Inverse Mach       Mach amont       Mach aval
     0.00000000       12.55585780        0.00000000        0.78260870        4.60000000
     1.20986490       12.55818112        0.00234176        0.78129405        4.60000000        4.59965491
     1.46515431       12.56143186        0.00321646        0.78081153        4.60000000        4.59917225
     1.73737995       12.56746486        0.00425770        0.78024298        4.60000000        4.59827702
     2.03059719       12.57813494        0.00549519        0.77957529        4.60000000        4.59669538
     2.33450875       12.59529695        0.00689671        0.77882931        4.60000000        4.59415594
     2.64342747       12.62080571        0.00843889        0.77802058        4.60000000        4.59039165
     2.95577520       12.65651606        0.01011371        0.77715614        4.60000000        4.58514218
     3.27208937       12.70428284        0.01192439        0.77623714        4.60000000        4.57815682
     3.59385961       12.76596089        0.01388179        0.77526110        4.60000000        4.56919757
     3.92297179       12.84340503        0.01600226        0.77422319        4.60000000        4.55804228
     4.20270057       12.92084917        0.01789762        0.77331173        4.60000000        4.54698881
     4.45040249       12.99829331        0.01964688        0.77248348        4.60000000        4.53603410
     4.67544117       13.07573746        0.02129362        0.77171461        4.60000000        4.52517519
     4.88349164       13.15318160        0.02286468        0.77099042        4.60000000        4.51440923
     5.07827462       13.23062574        0.02437788        0.77030116        4.60000000        4.50373350
     5.26237219       13.30806988        0.02584568        0.76963998        4.60000000        4.49314535
     5.43765531       13.38551403        0.02727720        0.76900188        4.60000000        4.48264226
     5.60552651       13.46295817        0.02867930        0.76838307        4.60000000        4.47222177
     5.76706628       13.54040231        0.03005728        0.76778061        4.60000000        4.46188155
     5.92312618       13.61784645        0.03141533        0.76719218        4.60000000        4.45161931
     6.07439008       13.69529059        0.03275683        0.76661588        4.60000000        4.44143288
     6.22141624       13.77273474        0.03408453        0.76605019        4.60000000        4.43132015
     6.36466665       13.85017888        0.03540072        0.76549380        4.60000000        4.42127909
     6.50452839       13.92762302        0.03670731        0.76494564        4.60000000        4.41130774
     6.64132927       14.00506716        0.03800590        0.76440479        4.60000000        4.40140421
     6.77534946       14.08251131        0.03929787        0.76387046        4.60000000        4.39156669
     6.90683050       14.15995545        0.04058441        0.76334196        4.60000000        4.38179341
     7.03598223       14.23739959        0.04186655        0.76281870        4.60000000        4.37208267
     7.16298811       14.31484373        0.04314516        0.76230015        4.60000000        4.36243285
     7.28800967       14.39228787        0.04442105        0.76178585        4.60000000        4.35284235
     7.41118983       14.46973202        0.04569489        0.76127540        4.60000000        4.34330966
     7.53265574       14.54717616        0.04696729        0.76076842        4.60000000        4.33383330
     7.65252107       14.62462030        0.04823880        0.76026458        4.60000000        4.32441184
     7.77088790       14.70206444        0.04950990        0.75976360        4.60000000        4.31504391
     7.88784824       14.77950859        0.05078102        0.75926519        4.60000000        4.30572818
     8.00348536       14.85695273        0.05205256        0.75876912        4.60000000        4.29646337
     8.11787486       14.93439687        0.05332486        0.75827516        4.60000000        4.28724823
     8.23108566       15.01184101        0.05459824        0.75778312        4.60000000        4.27808157
     8.34318072       15.08928515        0.05587298        0.75729281        4.60000000        4.26896223
     8.45421779       15.16672930        0.05714935        0.75680405        4.60000000        4.25988908
     8.56424987       15.24417344        0.05842759        0.75631669        4.60000000        4.25086105
     8.67332589       15.32161758        0.05970791        0.75583058        4.60000000        4.24187708
     8.78149096       15.39906172        0.06099051        0.75534560        4.60000000        4.23293615
     8.88878689       15.47650587        0.06227557        0.75486161        4.60000000        4.22403730
     8.99525245       15.55395001        0.06356326        0.75437850        4.60000000        4.21517956
     9.10092369       15.63139415        0.06485373        0.75389615        4.60000000        4.20636203
     9.20583417       15.70883829        0.06614712        0.75341448        4.60000000        4.19758381
     9.31001525       15.78628243        0.06744356        0.75293338        4.60000000        4.18884404
     9.41349619       15.86372658        0.06874317        0.75245277        4.60000000        4.18014189
     9.51630441       15.94117072        0.07004607        0.75197256        4.60000000        4.17147655
     9.61846563       16.01861486        0.07135235        0.75149268        4.60000000        4.16284724
     9.72000401       16.09605900        0.07266211        0.75101305        4.60000000        4.15425322
     9.82094226       16.17350314        0.07397543        0.75053360        4.60000000        4.14569374
     9.92130177       16.25094729        0.07529241        0.75005426        4.60000000        4.13716810
    10.02110273       16.32839143        0.07661310        0.74957499        4.60000000        4.12867561
    10.12036420       16.40583557        0.07793759        0.74909571        4.60000000        4.12021561
    10.21910418       16.48327971        0.07926594        0.74861637        4.60000000        4.11178745
    10.31733975       16.56072386        0.08059821        0.74813692        4.60000000        4.10339051
    10.41508705       16.63816800        0.08193445        0.74765731        4.60000000        4.09502419
    10.51236144       16.71561214        0.08327472        0.74717749        4.60000000        4.08668790
    10.60917746       16.79305628        0.08461907        0.74669742        4.60000000        4.07838108
    10.70554896       16.87050042        0.08596754        0.74621706        4.60000000        4.07010316
    10.80148912       16.94794457        0.08732017        0.74573636        4.60000000        4.06185363
    10.89701048       17.02538871        0.08867700        0.74525528        4.60000000        4.05363197
    10.99212499       17.10283285        0.09003808        0.74477379        4.60000000        4.04543767
    11.08684407       17.18027699        0.09140342        0.74429186        4.60000000        4.03727025
    11.18117861       17.25772114        0.09277308        0.74380944        4.60000000        4.02912923
    11.27513901       17.33516528        0.09414706        0.74332651        4.60000000        4.02101417
    11.36873526       17.41260942        0.09552541        0.74284303        4.60000000        4.01292462
    11.46197687       17.49005356        0.09690814        0.74235898        4.60000000        4.00486015
    11.55487297       17.56749770        0.09829529        0.74187432        4.60000000        3.99682035
    11.64743231       17.64494185        0.09968687        0.74138903        4.60000000        3.98880481
    11.73966327       17.72238599        0.10108289        0.74090309        4.60000000        3.98081314
    11.83157392       17.79983013        0.10248339        0.74041647        4.60000000        3.97284496
    11.92317199       17.87727427        0.10388838        0.73992914        4.60000000        3.96489991
    12.01446492       17.95471842        0.10529788        0.73944108        4.60000000        3.95697762
    12.10545985       18.03216256        0.10671189        0.73895226        4.60000000        3.94907776
    12.19616366       18.10960670        0.10813043        0.73846268        4.60000000        3.94119998
    12.28658296       18.18705084        0.10955352        0.73797230        4.60000000        3.93334395
    12.37672413       18.26449498        0.11098117        0.73748110        4.60000000        3.92550937
    12.46659332       18.34193913        0.11241338        0.73698907        4.60000000        3.91769593
    12.55619646       18.41938327        0.11385016        0.73649619        4.60000000        3.90990332
    12.64553925       18.49682741        0.11529153        0.73600244        4.60000000        3.90213126
    12.73462722       18.57427155        0.11673749        0.73550780        4.60000000        3.89437948
    12.82346568       18.65171570        0.11818805        0.73501225        4.60000000        3.88664768
    12.91205979       18.72915984        0.11964322        0.73451579        4.60000000        3.87893562
    13.00041451       18.80660398        0.12110299        0.73401839        4.60000000        3.87124303
    13.08853467       18.88404812        0.12256738        0.73352003        4.60000000        3.86356967
    13.17642489       18.96149226        0.12403638        0.73302071        4.60000000        3.85591530
    13.26408970       19.03893641        0.12551001        0.73252041        4.60000000        3.84827967
    13.35153345       19.11638055        0.12698826        0.73201911        4.60000000        3.84066257
    13.43876035       19.19382469        0.12847114        0.73151681        4.60000000        3.83306377
    13.52577450       19.27126883        0.12995864        0.73101348        4.60000000        3.82548305
    13.61257984       19.34871298        0.13145077        0.73050912        4.60000000        3.81792022
    13.69918024       19.42615712        0.13294753        0.73000371        4.60000000        3.81037506
    13.78557942       19.50360126        0.13444892        0.72949725        4.60000000        3.80284737
    13.87178100       19.58104540        0.13595494        0.72898972        4.60000000        3.79533698
    13.95778847       19.65848954        0.13746558        0.72848110        4.60000000        3.78784369
    14.04360525       19.73593369        0.13898085        0.72797140        4.60000000        3.78036732
    14.12923464       19.81337783        0.14050075        0.72746059        4.60000000        3.77290770
    14.21467987       19.89082197        0.14202527        0.72694867        4.60000000        3.76546465
    14.29994406       19.96826611        0.14355440        0.72643563        4.60000000        3.75803802
    14.38503024       20.04571026        0.14508816        0.72592145        4.60000000        3.75062764
    14.46994136       20.12315440        0.14662653        0.72540614        4.60000000        3.74323336
    14.55468030       20.20059854        0.14816951        0.72488967        4.60000000        3.73585502
    14.63924986       20.27804268        0.14971710        0.72437204        4.60000000        3.72849248
    14.72365275       20.35548682        0.15126929        0.72385324        4.60000000        3.72114560
    14.80789161       20.43293097        0.15282608        0.72333327        4.60000000        3.71381423
    14.89196904       20.51037511        0.15438746        0.72281211        4.60000000        3.70649824
    14.97588753       20.58781925        0.15595343        0.72228975        4.60000000        3.69919751
    15.05964953       20.66526339        0.15752399        0.72176619        4.60000000        3.69191189
    15.14325743       20.74270753        0.15909912        0.72124142        4.60000000        3.68464127
    15.22671355       20.82015168        0.16067883        0.72071544        4.60000000        3.67738554
    15.31002015       20.89759582        0.16226311        0.72018823        4.60000000        3.67014456
    15.39317944       20.97503996        0.16385194        0.71965978        4.60000000        3.66291823
    15.47619357       21.05248410        0.16544533        0.71913010        4.60000000        3.65570644
    15.55906464       21.12992825        0.16704327        0.71859917        4.60000000        3.64850908
    15.64179471       21.20737239        0.16864575        0.71806698        4.60000000        3.64132604
    15.72438577       21.28481653        0.17025277        0.71753354        4.60000000        3.63415722
    15.80683977       21.36226067        0.17186431        0.71699883        4.60000000        3.62700253
    15.88915863       21.43970481        0.17348038        0.71646284        4.60000000        3.61986186
    15.97134419       21.51714896        0.17510096        0.71592558        4.60000000        3.61273513
    16.05339828       21.59459310        0.17672604        0.71538703        4.60000000        3.60562224
    16.13532268       21.67203724        0.17835562        0.71484718        4.60000000        3.59852311
    16.21711911       21.74948138        0.17998969        0.71430604        4.60000000        3.59143764
    16.29878928       21.82692553        0.18162824        0.71376359        4.60000000        3.58436576
    16.38033484       21.90436967        0.18327126        0.71321984        4.60000000        3.57730738
    16.46175741       21.98181381        0.18491875        0.71267477        4.60000000        3.57026243
    16.54305857       22.05925795        0.18657070        0.71212837        4.60000000        3.56323082
    16.62423988       22.13670209        0.18822710        0.71158066        4.60000000        3.55621248
    16.70530284       22.21414624        0.18988793        0.71103160        4.60000000        3.54920734
    16.78624894       22.29159038        0.19155319        0.71048121        4.60000000        3.54221532
    16.86707962       22.36903452        0.19322288        0.70992948        4.60000000        3.53523637
    16.94779631       22.44647866        0.19489698        0.70937640        4.60000000        3.52827040
    17.02840039       22.52392281        0.19657548        0.70882197        4.60000000        3.52131735
    17.10889322       22.60136695        0.19825837        0.70826618        4.60000000        3.51437716
    17.18927613       22.67881109        0.19994565        0.70770903        4.60000000        3.50744977
    17.26955041       22.75625523        0.20163730        0.70715050        4.60000000        3.50053512
    17.34971735       22.83369937        0.20333331        0.70659061        4.60000000        3.49363314
    17.42977820       22.91114352        0.20503368        0.70602934        4.60000000        3.48674378
    17.50973416       22.98858766        0.20673840        0.70546668        4.60000000        3.47986698
    17.58958645       23.06603180        0.20844745        0.70490264        4.60000000        3.47300269
    17.66933623       23.14347594        0.21016082        0.70433721        4.60000000        3.46615085
    17.74898465       23.22092009        0.21187851        0.70377038        4.60000000        3.45931141
    17.82853284       23.29836423        0.21360050        0.70320215        4.60000000        3.45248432
    17.90798190       23.37580837        0.21532679        0.70263252        4.60000000        3.44566953
    17.98733291       23.45325251        0.21705736        0.70206148        4.60000000        3.43886700
    18.06658693       23.53069665        0.21879220        0.70148902        4.60000000        3.43207667
    18.14574501       23.60814080        0.22053130        0.70091514        4.60000000        3.42529849
    18.22480815       23.68558494        0.22227466        0.70033985        4.60000000        3.41853243
    18.30377736       23.76302908        0.22402225        0.69976312        4.60000000        3.41177844
    18.38265362       23.84047322        0.22577407        0.69918497        4.60000000        3.40503648
    18.46143789       23.91791737        0.22753012        0.69860538        4.60000000        3.39830650
    18.54013110       23.99536151        0.22929036        0.69802435        4.60000000        3.39158846
    18.61873418       24.07280565        0.23105481        0.69744187        4.60000000        3.38488232
    18.69724804       24.15024979        0.23282344        0.69685795        4.60000000        3.37818805
    18.77567358       24.22769393        0.23459624        0.69627258        4.60000000        3.37150560
    18.85401165       24.30513808        0.23637321        0.69568576        4.60000000        3.36483494
    18.93226312       24.38258222        0.23815432        0.69509747        4.60000000        3.35817603
    19.01042883       24.46002636        0.23993957        0.69450772        4.60000000        3.35152883
    19.08850959       24.53747050        0.24172896        0.69391650        4.60000000        3.34489331
    19.16650624       24.61491464        0.24352245        0.69332382        4.60000000        3.33826944
    19.24441953       24.69235879        0.24532006        0.69272965        4.60000000        3.33165718
    19.32225028       24.76980293        0.24712175        0.69213401        4.60000000        3.32505650
    19.39999924       24.84724707        0.24892752        0.69153689        4.60000000        3.31846736
    19.47766715       24.92469121        0.25073737        0.69093827        4.60000000        3.31188974
    19.55525476       25.00213536        0.25255127        0.69033817        4.60000000        3.30532360
    19.63276280       25.07957950        0.25436921        0.68973657        4.60000000        3.29876892
    19.71019197       25.15702364        0.25619119        0.68913348        4.60000000        3.29222566
    19.78754297       25.23446778        0.25801719        0.68852888        4.60000000        3.28569379
    19.86481649       25.31191192        0.25984719        0.68792278        4.60000000        3.27917328
    19.94201320       25.38935607        0.26168119        0.68731516        4.60000000        3.27266412
    20.01913377       25.46680021        0.26351918        0.68670603        4.60000000        3.26616626
    20.09617883       25.54424435        0.26536113        0.68609539        4.60000000        3.25967968
    20.17314905       25.62168849        0.26720705        0.68548322        4.60000000        3.25320436
    20.25004502       25.69913264        0.26905691        0.68486953        4.60000000        3.24674026
    20.32686739       25.77657678        0.27091071        0.68425431        4.60000000        3.24028737
    20.40361675       25.85402092        0.27276842        0.68363756        4.60000000        3.23384566
    20.48029369       25.93146506        0.27463005        0.68301928        4.60000000        3.22741509
    20.55689880       26.00890920        0.27649557        0.68239945        4.60000000        3.22099566
    20.63343266       26.08635335        0.27836497        0.68177808        4.60000000        3.21458733
    20.70989583       26.16379749        0.28023825        0.68115516        4.60000000        3.20819007
    20.78628886       26.24124163        0.28211538        0.68053069        4.60000000        3.20180388
    20.86261230       26.31868577        0.28399636        0.67990467        4.60000000        3.19542871
    20.93886669       26.39612992        0.28588117        0.67927708        4.60000000        3.18906456
    21.01505255       26.47357406        0.28776980        0.67864794        4.60000000        3.18271139
