#  Theta paroi en deg Angle Choc en deg       Kp           Inverse Mach       Mach amont       Mach aval
     0.00000000       15.68035013        0.00000000        0.72972973        3.70000000
     1.40160966       15.68257972        0.00323374        0.72811367        3.70000000        3.69976662
     1.69546212       15.68569931        0.00443778        0.72752062        3.70000000        3.69944016
     2.00955054       15.69148891        0.00587479        0.72681880        3.70000000        3.69883457
     2.34778252       15.70172850        0.00758247        0.72599303        3.70000000        3.69776436
     2.69761214       15.71819810        0.00951201        0.72507047        3.70000000        3.69604533
     3.05190670       15.74267771        0.01162608        0.72407207        3.70000000        3.69349548
     3.40836865       15.77694733        0.01390815        0.72300839        3.70000000        3.68993628
     3.76720593       15.82278696        0.01635689        0.72188270        3.70000000        3.68519423
     4.12976440       15.88197659        0.01898100        0.72069374        3.70000000        3.67910246
     4.49786933       15.95629624        0.02179612        0.71943735        3.70000000        3.67150256
     4.80852981       16.03061589        0.02428836        0.71834090        3.70000000        3.66395608
     5.08193610       16.10493554        0.02656897        0.71735005        3.70000000        3.65646177
     5.32898175       16.17925519        0.02869945        0.71643479        3.70000000        3.64901842
     5.55626955       16.25357484        0.03071778        0.71557662        3.70000000        3.64162486
     5.76812869       16.32789449        0.03264918        0.71476322        3.70000000        3.63427995
     5.96756374       16.40221414        0.03451139        0.71398594        3.70000000        3.62698258
     6.15675190       16.47653379        0.03631737        0.71323846        3.70000000        3.61973168
     6.33732536       16.55085344        0.03807690        0.71251599        3.70000000        3.61252622
     6.51054166       16.62517309        0.03979757        0.71181481        3.70000000        3.60536517
     6.67739191       16.69949274        0.04148539        0.71113196        3.70000000        3.59824755
     6.83867217       16.77381239        0.04314520        0.71046508        3.70000000        3.59117241
     6.99503222       16.84813204        0.04478098        0.70981220        3.70000000        3.58413881
     7.14700994       16.92245169        0.04639602        0.70917168        3.70000000        3.57714586
     7.29505591       16.99677134        0.04799307        0.70854216        3.70000000        3.57019268
     7.43955176       17.07109099        0.04957448        0.70792248        3.70000000        3.56327840
     7.58082367       17.14541064        0.05114225        0.70731163        3.70000000        3.55640221
     7.71915286       17.21973029        0.05269811        0.70670874        3.70000000        3.54956330
     7.85478358       17.29404994        0.05424356        0.70611305        3.70000000        3.54276087
     7.98792947       17.36836959        0.05577990        0.70552391        3.70000000        3.53599417
     8.11877849       17.44268924        0.05730829        0.70494072        3.70000000        3.52926246
     8.24749705       17.51700889        0.05882974        0.70436297        3.70000000        3.52256501
     8.37423311       17.59132854        0.06034515        0.70379019        3.70000000        3.51590112
     8.49911900       17.66564819        0.06185534        0.70322196        3.70000000        3.50927011
     8.62227344       17.73996784        0.06336101        0.70265791        3.70000000        3.50267131
     8.74380351       17.81428749        0.06486282        0.70209770        3.70000000        3.49610407
     8.86380605       17.88860714        0.06636135        0.70154101        3.70000000        3.48956777
     8.98236902       17.96292679        0.06785713        0.70098758        3.70000000        3.48306178
     9.09957251       18.03724644        0.06935063        0.70043714        3.70000000        3.47658551
     9.21548974       18.11156609        0.07084229        0.69988945        3.70000000        3.47013839
     9.33018781       18.18588574        0.07233250        0.69934431        3.70000000        3.46371984
     9.44372831       18.26020539        0.07382164        0.69880150        3.70000000        3.45732931
     9.55616804       18.33452504        0.07531002        0.69826086        3.70000000        3.45096626
     9.66755941       18.40884469        0.07679796        0.69772220        3.70000000        3.44463017
     9.77795094       18.48316434        0.07828574        0.69718537        3.70000000        3.43832054
     9.88738761       18.55748399        0.07977361        0.69665022        3.70000000        3.43203686
     9.99591125       18.63180364        0.08126182        0.69611662        3.70000000        3.42577865
    10.10356078       18.70612329        0.08275057        0.69558443        3.70000000        3.41954544
    10.21037248       18.78044294        0.08424009        0.69505354        3.70000000        3.41333677
    10.31638033       18.85476259        0.08573055        0.69452383        3.70000000        3.40715219
    10.42161605       18.92908224        0.08722213        0.69399520        3.70000000        3.40099127
    10.52610940       19.00340189        0.08871500        0.69346756        3.70000000        3.39485357
    10.62988833       19.07772154        0.09020930        0.69294079        3.70000000        3.38873870
    10.73297912       19.15204119        0.09170519        0.69241483        3.70000000        3.38264623
    10.83540651       19.22636084        0.09320278        0.69188959        3.70000000        3.37657579
    10.93719380       19.30068049        0.09470221        0.69136498        3.70000000        3.37052697
    11.03836300       19.37500014        0.09620358        0.69084093        3.70000000        3.36449942
    11.13893490       19.44931979        0.09770701        0.69031737        3.70000000        3.35849276
    11.23892918       19.52363944        0.09921260        0.68979424        3.70000000        3.35250664
    11.33836449       19.59795909        0.10072044        0.68927148        3.70000000        3.34654071
    11.43725848       19.67227874        0.10223061        0.68874901        3.70000000        3.34059463
    11.53562793       19.74659839        0.10374321        0.68822679        3.70000000        3.33466807
    11.63348880       19.82091804        0.10525831        0.68770476        3.70000000        3.32876072
    11.73085621       19.89523769        0.10677598        0.68718286        3.70000000        3.32287224
    11.82774459       19.96955733        0.10829628        0.68666105        3.70000000        3.31700235
    11.92416771       20.04387698        0.10981930        0.68613929        3.70000000        3.31115074
    12.02013864       20.11819663        0.11134508        0.68561751        3.70000000        3.30531711
    12.11566993       20.19251628        0.11287368        0.68509569        3.70000000        3.29950118
    12.21077349       20.26683593        0.11440516        0.68457377        3.70000000        3.29370268
    12.30546077       20.34115558        0.11593956        0.68405172        3.70000000        3.28792133
    12.39974266       20.41547523        0.11747694        0.68352951        3.70000000        3.28215687
    12.49362964       20.48979488        0.11901733        0.68300708        3.70000000        3.27640904
    12.58713172       20.56411453        0.12056078        0.68248441        3.70000000        3.27067759
    12.68025852       20.63843418        0.12210733        0.68196147        3.70000000        3.26496227
    12.77301923       20.71275383        0.12365701        0.68143822        3.70000000        3.25926284
    12.86542270       20.78707348        0.12520987        0.68091462        3.70000000        3.25357907
    12.95747741       20.86139313        0.12676593        0.68039066        3.70000000        3.24791073
    13.04919155       20.93571278        0.12832522        0.67986629        3.70000000        3.24225759
    13.14057294       21.01003243        0.12988777        0.67934149        3.70000000        3.23661944
    13.23162914       21.08435208        0.13145361        0.67881624        3.70000000        3.23099606
    13.32236742       21.15867173        0.13302277        0.67829050        3.70000000        3.22538724
    13.41279478       21.23299138        0.13459527        0.67776426        3.70000000        3.21979279
    13.50291797       21.30731103        0.13617112        0.67723748        3.70000000        3.21421250
    13.59274350       21.38163068        0.13775036        0.67671014        3.70000000        3.20864618
    13.68227764       21.45595033        0.13933300        0.67618222        3.70000000        3.20309364
    13.77152645       21.53026998        0.14091907        0.67565370        3.70000000        3.19755470
    13.86049577       21.60458963        0.14250857        0.67512456        3.70000000        3.19202917
    13.94919126       21.67890928        0.14410152        0.67459477        3.70000000        3.18651688
    14.03761838       21.75322893        0.14569794        0.67406431        3.70000000        3.18101766
    14.12578241       21.82754858        0.14729785        0.67353317        3.70000000        3.17553133
    14.21368845       21.90186823        0.14890125        0.67300132        3.70000000        3.17005774
    14.30134145       21.97618788        0.15050816        0.67246875        3.70000000        3.16459673
    14.38874619       22.05050753        0.15211858        0.67193544        3.70000000        3.15914813
    14.47590729       22.12482718        0.15373254        0.67140136        3.70000000        3.15371179
    14.56282927       22.19914683        0.15535003        0.67086651        3.70000000        3.14828757
    14.64951646       22.27346648        0.15697108        0.67033087        3.70000000        3.14287531
    14.73597308       22.34778613        0.15859567        0.66979441        3.70000000        3.13747488
    14.82220321       22.42210578        0.16022383        0.66925713        3.70000000        3.13208614
    14.90821084       22.49642543        0.16185556        0.66871901        3.70000000        3.12670894
    14.99399981       22.57074508        0.16349087        0.66818003        3.70000000        3.12134315
    15.07957386       22.64506473        0.16512975        0.66764018        3.70000000        3.11598866
    15.16493663       22.71938438        0.16677222        0.66709944        3.70000000        3.11064532
    15.25009163       22.79370403        0.16841828        0.66655781        3.70000000        3.10531301
    15.33504230       22.86802368        0.17006793        0.66601526        3.70000000        3.09999161
    15.41979198       22.94234333        0.17172118        0.66547178        3.70000000        3.09468100
    15.50434389       23.01666298        0.17337802        0.66492737        3.70000000        3.08938107
    15.58870120       23.09098263        0.17503847        0.66438200        3.70000000        3.08409171
    15.67286697       23.16530228        0.17670251        0.66383566        3.70000000        3.07881279
    15.75684419       23.23962193        0.17837016        0.66328835        3.70000000        3.07354421
    15.84063575       23.31394158        0.18004141        0.66274006        3.70000000        3.06828587
    15.92424449       23.38826123        0.18171627        0.66219076        3.70000000        3.06303767
    16.00767316       23.46258088        0.18339473        0.66164044        3.70000000        3.05779949
    16.09092445       23.53690053        0.18507680        0.66108911        3.70000000        3.05257125
    16.17400097       23.61122018        0.18676246        0.66053674        3.70000000        3.04735284
    16.25690526       23.68553983        0.18845173        0.65998332        3.70000000        3.04214417
    16.33963982       23.75985948        0.19014460        0.65942885        3.70000000        3.03694514
    16.42220705       23.83417913        0.19184107        0.65887331        3.70000000        3.03175568
    16.50460934       23.90849878        0.19354113        0.65831670        3.70000000        3.02657567
    16.58684898       23.98281843        0.19524478        0.65775900        3.70000000        3.02140506
    16.66892822       24.05713808        0.19695203        0.65720020        3.70000000        3.01624373
    16.75084926       24.13145773        0.19866286        0.65664030        3.70000000        3.01109162
    16.83261423       24.20577738        0.20037727        0.65607928        3.70000000        3.00594864
    16.91422523       24.28009703        0.20209527        0.65551714        3.70000000        3.00081471
    16.99568431       24.35441668        0.20381684        0.65495387        3.70000000        2.99568976
    17.07699345       24.42873633        0.20554199        0.65438945        3.70000000        2.99057370
    17.15815460       24.50305598        0.20727070        0.65382388        3.70000000        2.98546647
    17.23916967       24.57737563        0.20900298        0.65325715        3.70000000        2.98036799
    17.32004053       24.65169528        0.21073881        0.65268925        3.70000000        2.97527820
    17.40076899       24.72601493        0.21247820        0.65212017        3.70000000        2.97019701
    17.48135682       24.80033458        0.21422113        0.65154991        3.70000000        2.96512436
    17.56180577       24.87465423        0.21596761        0.65097846        3.70000000        2.96006019
    17.64211754       24.94897388        0.21771762        0.65040580        3.70000000        2.95500444
    17.72229378       25.02329353        0.21947117        0.64983193        3.70000000        2.94995703
    17.80233614       25.09761318        0.22122824        0.64925685        3.70000000        2.94491790
    17.88224619       25.17193283        0.22298883        0.64868054        3.70000000        2.93988700
    17.96202550       25.24625248        0.22475293        0.64810300        3.70000000        2.93486426
    18.04167559       25.32057213        0.22652053        0.64752421        3.70000000        2.92984963
    18.12119796       25.39489178        0.22829164        0.64694418        3.70000000        2.92484305
    18.20059406       25.46921142        0.23006624        0.64636290        3.70000000        2.91984445
    18.27986533       25.54353107        0.23184432        0.64578035        3.70000000        2.91485380
    18.35901315       25.61785072        0.23362588        0.64519653        3.70000000        2.90987103
    18.43803892       25.69217037        0.23541091        0.64461143        3.70000000        2.90489609
    18.51694397       25.76649002        0.23719940        0.64402505        3.70000000        2.89992894
    18.59572962       25.84080967        0.23899135        0.64343738        3.70000000        2.89496951
    18.67439716       25.91512932        0.24078674        0.64284841        3.70000000        2.89001776
    18.75294784       25.98944897        0.24258558        0.64225814        3.70000000        2.88507364
    18.83138292       26.06376862        0.24438784        0.64166656        3.70000000        2.88013711
    18.90970361       26.13808827        0.24619353        0.64107366        3.70000000        2.87520812
    18.98791108       26.21240792        0.24800263        0.64047943        3.70000000        2.87028662
    19.06600652       26.28672757        0.24981514        0.63988387        3.70000000        2.86537257
    19.14399107       26.36104722        0.25163105        0.63928698        3.70000000        2.86046593
    19.22186585       26.43536687        0.25345035        0.63868874        3.70000000        2.85556665
    19.29963194       26.50968652        0.25527302        0.63808915        3.70000000        2.85067469
    19.37729046       26.58400617        0.25709907        0.63748820        3.70000000        2.84579001
    19.45484244       26.65832582        0.25892848        0.63688589        3.70000000        2.84091258
    19.53228892       26.73264547        0.26076125        0.63628222        3.70000000        2.83604234
    19.60963092       26.80696512        0.26259735        0.63567717        3.70000000        2.83117927
    19.68686945       26.88128477        0.26443680        0.63507073        3.70000000        2.82632332
    19.76400548       26.95560442        0.26627957        0.63446291        3.70000000        2.82147446
    19.84103997       27.02992407        0.26812565        0.63385370        3.70000000        2.81663266
    19.91797388       27.10424372        0.26997504        0.63324308        3.70000000        2.81179787
    19.99480812       27.17856337        0.27182773        0.63263106        3.70000000        2.80697007
    20.07154362       27.25288302        0.27368370        0.63201763        3.70000000        2.80214921
    20.14818125       27.32720267        0.27554296        0.63140279        3.70000000        2.79733528
    20.22472191       27.40152232        0.27740547        0.63078652        3.70000000        2.79252822
    20.30116645       27.47584197        0.27927125        0.63016882        3.70000000        2.78772802
    20.37751572       27.55016162        0.28114028        0.62954969        3.70000000        2.78293463
    20.45377054       27.62448127        0.28301254        0.62892912        3.70000000        2.77814804
    20.52993174       27.69880092        0.28488802        0.62830710        3.70000000        2.77336820
    20.60600011       27.77312057        0.28676673        0.62768363        3.70000000        2.76859510
    20.68197645       27.84744022        0.28864864        0.62705870        3.70000000        2.76382869
    20.75786153       27.92175987        0.29053375        0.62643231        3.70000000        2.75906896
    20.83365610       27.99607952        0.29242204        0.62580445        3.70000000        2.75431587
    20.90936091       28.07039917        0.29431350        0.62517512        3.70000000        2.74956940
    20.98497670       28.14471882        0.29620813        0.62454431        3.70000000        2.74482952
    21.06050419       28.21903847        0.29810592        0.62391202        3.70000000        2.74009620
    21.13594407       28.29335812        0.30000684        0.62327823        3.70000000        2.73536943
    21.21129706       28.36767777        0.30191090        0.62264295        3.70000000        2.73064916
    21.28656384       28.44199742        0.30381808        0.62200617        3.70000000        2.72593539
    21.36174506       28.51631707        0.30572836        0.62136788        3.70000000        2.72122807
    21.43684141       28.59063672        0.30764175        0.62072807        3.70000000        2.71652720
    21.51185351       28.66495637        0.30955822        0.62008675        3.70000000        2.71183275
    21.58678203       28.73927602        0.31147777        0.61944391        3.70000000        2.70714469
    21.66162757       28.81359567        0.31340039        0.61879954        3.70000000        2.70246300
    21.73639076       28.88791532        0.31532606        0.61815363        3.70000000        2.69778766
    21.81107221       28.96223497        0.31725477        0.61750619        3.70000000        2.69311865
    21.88567250       29.03655462        0.31918651        0.61685720        3.70000000        2.68845594
