#  Theta paroi en deg Angle Choc en deg       Kp           Inverse Mach       Mach amont       Mach aval
     0.00000000        2.86598398        0.00000000        0.95000000       20.00000000
     0.41476585        2.86859800        0.00023642        0.94953421       20.00000000       19.99385322
     0.50405780        2.87225548        0.00032537        0.94936533       20.00000000       19.98526838
     0.60024462        2.87904333        0.00043246        0.94916631       20.00000000       19.96938370
     0.70642417        2.89104846        0.00056346        0.94892893       20.00000000       19.94143975
     0.82071077        2.91035779        0.00071882        0.94865554       20.00000000       19.89688712
     0.94266813        2.93905823        0.00090059        0.94834610       20.00000000       19.83153071
     1.07315043        2.97923669        0.00111308        0.94799738       20.00000000       19.74168553
     1.21366520        3.03298009        0.00136267        0.94760384       20.00000000       19.62430994
     1.36600260        3.10237534        0.00165771        0.94715827       20.00000000       19.47707979
     1.53205375        3.18950936        0.00200853        0.94665200       20.00000000       19.29837608
     1.68140127        3.27664337        0.00235039        0.94617932       20.00000000       19.12570487
     1.81985400        3.36377739        0.00268984        0.94572689       20.00000000       18.95831668
     1.95054766        3.45091140        0.00303035        0.94528739       20.00000000       18.79558182
     2.07538499        3.53804542        0.00337395        0.94485634       20.00000000       18.63696925
     2.19561618        3.62517944        0.00372197        0.94443077       20.00000000       18.48202963
     2.31211138        3.71231345        0.00407528        0.94400861       20.00000000       18.33038163
     2.42550355        3.79944747        0.00443448        0.94358836       20.00000000       18.18170080
     2.53626939        3.88658149        0.00480002        0.94316888       20.00000000       18.03571047
     2.64477795        3.97371550        0.00517222        0.94274933       20.00000000       17.89217424
     2.75132199        4.06084952        0.00555134        0.94232904       20.00000000       17.75088982
     2.85613789        4.14798353        0.00593756        0.94190747       20.00000000       17.61168382
     2.95942008        4.23511755        0.00633103        0.94148420       20.00000000       17.47440744
     3.06133042        4.32225157        0.00673187        0.94105890       20.00000000       17.33893289
     3.16200563        4.40938558        0.00714016        0.94063129       20.00000000       17.20515027
     3.26156212        4.49651960        0.00755599        0.94020115       20.00000000       17.07296504
     3.36010030        4.58365361        0.00797941        0.93976831       20.00000000       16.94229581
     3.45770710        4.67078763        0.00841047        0.93933262       20.00000000       16.81307243
     3.55445877        4.75792165        0.00884922        0.93889397       20.00000000       16.68523448
     3.65042226        4.84505566        0.00929569        0.93845226       20.00000000       16.55872980
     3.74565695        4.93218968        0.00974991        0.93800743       20.00000000       16.43351340
     3.84021568        5.01932369        0.01021189        0.93755943       20.00000000       16.30954642
     3.93414580        5.10645771        0.01068166        0.93710820       20.00000000       16.18679525
     4.02748976        5.19359173        0.01115923        0.93665373       20.00000000       16.06523081
     4.12028599        5.28072574        0.01164462        0.93619599       20.00000000       15.94482786
     4.21256917        5.36785976        0.01213783        0.93573497       20.00000000       15.82556450
     4.30437095        5.45499377        0.01263888        0.93527068       20.00000000       15.70742162
     4.39572012        5.54212779        0.01314776        0.93480312       20.00000000       15.59038254
     4.48664304        5.62926181        0.01366450        0.93433229       20.00000000       15.47443260
     4.57716385        5.71639582        0.01418909        0.93385821       20.00000000       15.35955888
     4.66730481        5.80352984        0.01472152        0.93338091       20.00000000       15.24574991
     4.75708639        5.89066385        0.01526182        0.93290040       20.00000000       15.13299543
     4.84652748        5.97779787        0.01580997        0.93241670       20.00000000       15.02128620
     4.93564562        6.06493189        0.01636598        0.93192985       20.00000000       14.91061382
     5.02445703        6.15206590        0.01692984        0.93143987       20.00000000       14.80097056
     5.11297681        6.23919992        0.01750156        0.93094680       20.00000000       14.69234926
     5.20121900        6.32633393        0.01808114        0.93045066       20.00000000       14.58474319
     5.28919671        6.41346795        0.01866857        0.92995149       20.00000000       14.47814597
     5.37692214        6.50060197        0.01926385        0.92944933       20.00000000       14.37255148
     5.46440674        6.58773598        0.01986698        0.92894421       20.00000000       14.26795379
     5.55166120        6.67487000        0.02047795        0.92843617       20.00000000       14.16434708
     5.63869558        6.76200401        0.02109677        0.92792524       20.00000000       14.06172565
     5.72551930        6.84913803        0.02172342        0.92741145       20.00000000       13.96008380
     5.81214120        6.93627205        0.02235791        0.92689486       20.00000000       13.85941585
     5.89856964        7.02340606        0.02300023        0.92637549       20.00000000       13.75971609
     5.98481247        7.11054008        0.02365037        0.92585338       20.00000000       13.66097875
     6.07087710        7.19767409        0.02430834        0.92532857       20.00000000       13.56319801
     6.15677050        7.28480811        0.02497413        0.92480109       20.00000000       13.46636793
     6.24249933        7.37194213        0.02564773        0.92427098       20.00000000       13.37048250
     6.32806978        7.45907614        0.02632913        0.92373828       20.00000000       13.27553559
     6.41348783        7.54621016        0.02701834        0.92320302       20.00000000       13.18152098
     6.49875905        7.63334417        0.02771534        0.92266525       20.00000000       13.08843230
     6.58388875        7.72047819        0.02842014        0.92212498       20.00000000       12.99626310
     6.66888200        7.80761221        0.02913272        0.92158227       20.00000000       12.90500677
     6.75374357        7.89474622        0.02985308        0.92103714       20.00000000       12.81465661
     6.83847806        7.98188024        0.03058122        0.92048962       20.00000000       12.72520582
     6.92308974        8.06901425        0.03131713        0.91993976       20.00000000       12.63664745
     7.00758279        8.15614827        0.03206079        0.91938758       20.00000000       12.54897448
     7.09196111        8.24328229        0.03281221        0.91883311       20.00000000       12.46217977
     7.17622844        8.33041630        0.03357139        0.91827639       20.00000000       12.37625607
     7.26038837        8.41755032        0.03433830        0.91771745       20.00000000       12.29119608
     7.34444430        8.50468433        0.03511295        0.91715632       20.00000000       12.20699237
     7.42839949        8.59181835        0.03589533        0.91659303       20.00000000       12.12363745
     7.51225702        8.67895237        0.03668543        0.91602761       20.00000000       12.04112378
     7.59601988        8.76608638        0.03748325        0.91546008       20.00000000       11.95944372
     7.67969093        8.85322040        0.03828878        0.91489049       20.00000000       11.87858959
     7.76327284        8.94035441        0.03910201        0.91431884       20.00000000       11.79855365
     7.84676826        9.02748843        0.03992293        0.91374518       20.00000000       11.71932811
     7.93017967        9.11462245        0.04075154        0.91316952       20.00000000       11.64090516
     8.01350943        9.20175646        0.04158783        0.91259190       20.00000000       11.56327693
     8.09675986        9.28889048        0.04243180        0.91201234       20.00000000       11.48643554
     8.17993315        9.37602449        0.04328342        0.91143086       20.00000000       11.41037308
     8.26303141        9.46315851        0.04414271        0.91084749       20.00000000       11.33508163
     8.34605666        9.55029253        0.04500964        0.91026226       20.00000000       11.26055326
     8.42901084        9.63742654        0.04588422        0.90967518       20.00000000       11.18678002
     8.51189581        9.72456056        0.04676643        0.90908629       20.00000000       11.11375400
     8.59471336        9.81169457        0.04765627        0.90849559       20.00000000       11.04146724
     8.67746526        9.89882859        0.04855372        0.90790312       20.00000000       10.96991183
     8.76015311        9.98596261        0.04945879        0.90730890       20.00000000       10.89907986
     8.84277854       10.07309662        0.05037145        0.90671294       20.00000000       10.82896345
     8.92534308       10.16023064        0.05129171        0.90611527       20.00000000       10.75955472
     9.00784821       10.24736465        0.05221955        0.90551591       20.00000000       10.69084584
     9.09029534       10.33449867        0.05315497        0.90491487       20.00000000       10.62282900
     9.17268586       10.42163269        0.05409796        0.90431218       20.00000000       10.55549643
     9.25502110       10.50876670        0.05504851        0.90370785       20.00000000       10.48884039
     9.33730232       10.59590072        0.05600661        0.90310191       20.00000000       10.42285318
     9.41953075       10.68303473        0.05697225        0.90249437       20.00000000       10.35752715
     9.50170757       10.77016875        0.05794542        0.90188524       20.00000000       10.29285470
     9.58383395       10.85730277        0.05892612        0.90127455       20.00000000       10.22882826
     9.66591097       10.94443678        0.05991433        0.90066231       20.00000000       10.16544033
     9.74793971       11.03157080        0.06091005        0.90004854       20.00000000       10.10268346
     9.82992120       11.11870481        0.06191327        0.89943325       20.00000000       10.04055025
     9.91185642       11.20583883        0.06292397        0.89881646       20.00000000        9.97903334
     9.99374636       11.29297285        0.06394215        0.89819818       20.00000000        9.91812547
    10.07559194       11.38010686        0.06496780        0.89757843       20.00000000        9.85781941
    10.15739403       11.46724088        0.06600092        0.89695722       20.00000000        9.79810800
    10.23915353       11.55437489        0.06704148        0.89633456       20.00000000        9.73898414
    10.32087128       11.64150891        0.06808948        0.89571048       20.00000000        9.68044080
    10.40254806       11.72864293        0.06914491        0.89508497       20.00000000        9.62247101
    10.48418470       11.81577694        0.07020777        0.89445806       20.00000000        9.56506788
    10.56578193       11.90291096        0.07127804        0.89382976       20.00000000        9.50822456
    10.64734050       11.99004497        0.07235571        0.89320008       20.00000000        9.45193429
    10.72886112       12.07717899        0.07344077        0.89256903       20.00000000        9.39619038
    10.81034447       12.16431301        0.07453321        0.89193662       20.00000000        9.34098619
    10.89179125       12.25144702        0.07563303        0.89130286       20.00000000        9.28631518
    10.97320207       12.33858104        0.07674020        0.89066777       20.00000000        9.23217085
    11.05457757       12.42571505        0.07785473        0.89003136       20.00000000        9.17854679
    11.13591836       12.51284907        0.07897660        0.88939363       20.00000000        9.12543666
    11.21722504       12.59998309        0.08010580        0.88875459       20.00000000        9.07283417
    11.29849817       12.68711710        0.08124232        0.88811426       20.00000000        9.02073312
    11.37973830       12.77425112        0.08238615        0.88747264       20.00000000        8.96912739
    11.46094598       12.86138513        0.08353728        0.88682975       20.00000000        8.91801090
    11.54212171       12.94851915        0.08469570        0.88618559       20.00000000        8.86737768
    11.62326601       13.03565317        0.08586140        0.88554017       20.00000000        8.81722179
    11.70437937       13.12278718        0.08703437        0.88489350       20.00000000        8.76753740
    11.78546227       13.20992120        0.08821459        0.88424559       20.00000000        8.71831872
    11.86651515       13.29705521        0.08940206        0.88359645       20.00000000        8.66956004
    11.94753848       13.38418923        0.09059676        0.88294607       20.00000000        8.62125574
    12.02853268       13.47132325        0.09179869        0.88229448       20.00000000        8.57340023
    12.10949817       13.55845726        0.09300783        0.88164168       20.00000000        8.52598803
    12.19043538       13.64559128        0.09422417        0.88098767       20.00000000        8.47901369
    12.27134469       13.73272529        0.09544770        0.88033246       20.00000000        8.43247187
    12.35222648       13.81985931        0.09667841        0.87967607       20.00000000        8.38635726
    12.43308113       13.90699333        0.09791629        0.87901848       20.00000000        8.34066465
    12.51390902       13.99412734        0.09916132        0.87835972       20.00000000        8.29538887
    12.59471049       14.08126136        0.10041350        0.87769979       20.00000000        8.25052483
    12.67548587       14.16839538        0.10167282        0.87703868       20.00000000        8.20606750
    12.75623551       14.25552939        0.10293925        0.87637642       20.00000000        8.16201193
    12.83695973       14.34266341        0.10421279        0.87571300       20.00000000        8.11835321
    12.91765884       14.42979742        0.10549344        0.87504843       20.00000000        8.07508653
    12.99833316       14.51693144        0.10678116        0.87438271       20.00000000        8.03220710
    13.07898296       14.60406546        0.10807597        0.87371586       20.00000000        7.98971023
    13.15960855       14.69119947        0.10937783        0.87304786       20.00000000        7.94759126
    13.24021020       14.77833349        0.11068675        0.87237874       20.00000000        7.90584564
    13.32078820       14.86546750        0.11200270        0.87170848       20.00000000        7.86446882
    13.40134279       14.95260152        0.11332568        0.87103711       20.00000000        7.82345635
    13.48187424       15.03973554        0.11465568        0.87036461       20.00000000        7.78280384
    13.56238280       15.12686955        0.11599267        0.86969100       20.00000000        7.74250695
    13.64286870       15.21400357        0.11733666        0.86901628       20.00000000        7.70256138
    13.72333220       15.30113758        0.11868762        0.86834045       20.00000000        7.66296293
    13.80377351       15.38827160        0.12004555        0.86766351       20.00000000        7.62370742
    13.88419285       15.47540562        0.12141042        0.86698548       20.00000000        7.58479074
    13.96459045       15.56253963        0.12278224        0.86630634       20.00000000        7.54620884
    14.04496652       15.64967365        0.12416099        0.86562611       20.00000000        7.50795772
    14.12532126       15.73680766        0.12554664        0.86494479       20.00000000        7.47003343
    14.20565487       15.82394168        0.12693920        0.86426238       20.00000000        7.43243209
    14.28596753       15.91107570        0.12833865        0.86357888       20.00000000        7.39514985
    14.36625944       15.99820971        0.12974497        0.86289430       20.00000000        7.35818294
    14.44653079       16.08534373        0.13115815        0.86220863       20.00000000        7.32152760
    14.52678175       16.17247774        0.13257819        0.86152189       20.00000000        7.28518018
    14.60701249       16.25961176        0.13400506        0.86083407       20.00000000        7.24913702
    14.68722317       16.34674578        0.13543875        0.86014517       20.00000000        7.21339456
    14.76741397       16.43387979        0.13687925        0.85945519       20.00000000        7.17794925
    14.84758503       16.52101381        0.13832655        0.85876415       20.00000000        7.14279761
    14.92773651       16.60814782        0.13978063        0.85807203       20.00000000        7.10793620
    15.00786857       16.69528184        0.14124148        0.85737885       20.00000000        7.07336163
    15.08798133       16.78241586        0.14270908        0.85668460       20.00000000        7.03907057
    15.16807496       16.86954987        0.14418343        0.85598928       20.00000000        7.00505970
    15.24814957       16.95668389        0.14566451        0.85529289       20.00000000        6.97132579
    15.32820531       17.04381790        0.14715230        0.85459544       20.00000000        6.93786561
    15.40824230       17.13095192        0.14864679        0.85389693       20.00000000        6.90467601
    15.48826067       17.21808594        0.15014797        0.85319736       20.00000000        6.87175387
    15.56826053       17.30521995        0.15165582        0.85249672       20.00000000        6.83909610
    15.64824201       17.39235397        0.15317034        0.85179502       20.00000000        6.80669967
    15.72820523       17.47948798        0.15469150        0.85109226       20.00000000        6.77456159
    15.80815027       17.56662200        0.15621929        0.85038845       20.00000000        6.74267890
    15.88807727       17.65375602        0.15775369        0.84968357       20.00000000        6.71104869
    15.96798631       17.74089003        0.15929470        0.84897763       20.00000000        6.67966808
    16.04787750       17.82802405        0.16084230        0.84827064       20.00000000        6.64853425
    16.12775095       17.91515806        0.16239648        0.84756258       20.00000000        6.61764439
    16.20760673       18.00229208        0.16395721        0.84685347       20.00000000        6.58699575
    16.28744494       18.08942610        0.16552449        0.84614330       20.00000000        6.55658560
    16.36726569       18.17656011        0.16709831        0.84543206       20.00000000        6.52641128
    16.44706904       18.26369413        0.16867863        0.84471977       20.00000000        6.49647011
    16.52685507       18.35082814        0.17026546        0.84400642       20.00000000        6.46675951
    16.60662388       18.43796216        0.17185878        0.84329201       20.00000000        6.43727689
    16.68637553       18.52509618        0.17345857        0.84257654       20.00000000        6.40801971
