#  Theta paroi en deg Angle Choc en deg       Kp           Inverse Mach       Mach amont       Mach aval
     0.00000000       14.11698057        0.00000000        0.75609756        4.10000000
     1.30871887       14.11925706        0.00278038        0.75463585        4.10000000        4.09971991
     1.58402648       14.12244228        0.00381747        0.75409927        4.10000000        4.09932813
     1.87790640       14.12835366        0.00505346        0.75346570        4.10000000        4.09860140
     2.19436653       14.13880865        0.00652208        0.75272104        4.10000000        4.09731729
     2.52196451       14.15562470        0.00818308        0.75188923        4.10000000        4.09525506
     2.85427910       14.18061926        0.01000634        0.75098844        4.10000000        4.09219702
     3.18936980       14.21560976        0.01197983        0.75002743        4.10000000        4.08793027
     3.52761063       14.26241366        0.01410464        0.74900839        4.10000000        4.08224868
     3.87042209       14.32284839        0.01639072        0.74792941        4.10000000        4.07495517
     4.21966263       14.39873141        0.01885420        0.74678601        4.10000000        4.06586407
     4.51537163       14.47461443        0.02104478        0.74578534        4.10000000        4.05684547
     4.77636444       14.55049745        0.02305725        0.74487876        4.10000000        4.04789745
     5.01279215       14.62638047        0.02494396        0.74403944        4.10000000        4.03901816
     5.23080728       14.70226349        0.02673720        0.74325083        4.10000000        4.03020583
     5.43444366       14.77814651        0.02845840        0.74250194        4.10000000        4.02145871
     5.62650075       14.85402953        0.03012261        0.74178504        4.10000000        4.01277514
     5.80900710       14.92991255        0.03174081        0.74109449        4.10000000        4.00415349
     5.98348340       15.00579557        0.03332130        0.74042601        4.10000000        3.99559222
     6.15110124       15.08167859        0.03487049        0.73977629        4.10000000        3.98708979
     6.31278396       15.15756161        0.03639347        0.73914270        4.10000000        3.97864475
     6.46927315       15.23344463        0.03789433        0.73852312        4.10000000        3.97025567
     6.62117414       15.30932765        0.03937641        0.73791579        4.10000000        3.96192118
     6.76898796       15.38521066        0.04084249        0.73731927        4.10000000        3.95363995
     6.91313436       15.46109368        0.04229489        0.73673234        4.10000000        3.94541070
     7.05396881       15.53697670        0.04373558        0.73615395        4.10000000        3.93723217
     7.19179516       15.61285972        0.04516624        0.73558321        4.10000000        3.92910315
     7.32687533       15.68874274        0.04658833        0.73501936        4.10000000        3.92102246
     7.45943684       15.76462576        0.04800309        0.73446171        4.10000000        3.91298899
     7.58967868       15.84050878        0.04941162        0.73390967        4.10000000        3.90500162
     7.71777597       15.91639180        0.05081489        0.73336273        4.10000000        3.89705928
     7.84388365       15.99227482        0.05221374        0.73282041        4.10000000        3.88916094
     7.96813959       16.06815784        0.05360892        0.73228231        4.10000000        3.88130560
     8.09066705       16.14404086        0.05500111        0.73174806        4.10000000        3.87349228
     8.21157664       16.21992388        0.05639089        0.73121731        4.10000000        3.86572004
     8.33096809       16.29580690        0.05777882        0.73068976        4.10000000        3.85798797
     8.44893166       16.37168992        0.05916537        0.73016515        4.10000000        3.85029517
     8.56554926       16.44757294        0.06055097        0.72964321        4.10000000        3.84264078
     8.68089559       16.52345596        0.06193603        0.72912373        4.10000000        3.83502397
     8.79503882       16.59933898        0.06332090        0.72860648        4.10000000        3.82744392
     8.90804148       16.67522199        0.06470591        0.72809129        4.10000000        3.81989985
     9.01996102       16.75110501        0.06609136        0.72757797        4.10000000        3.81239098
     9.13085036       16.82698803        0.06747751        0.72706635        4.10000000        3.80491659
     9.24075838       16.90287105        0.06886463        0.72655629        4.10000000        3.79747594
     9.34973029       16.97875407        0.07025293        0.72604765        4.10000000        3.79006834
     9.45780808       17.05463709        0.07164264        0.72554029        4.10000000        3.78269310
     9.56503073       17.13052011        0.07303393        0.72503408        4.10000000        3.77534957
     9.67143453       17.20640313        0.07442700        0.72452893        4.10000000        3.76803710
     9.77705339       17.28228615        0.07582201        0.72402471        4.10000000        3.76075508
     9.88191894       17.35816917        0.07721911        0.72352134        4.10000000        3.75350288
     9.98606081       17.43405219        0.07861845        0.72301871        4.10000000        3.74627994
    10.08950682       17.50993521        0.08002015        0.72251674        4.10000000        3.73908566
    10.19228303       17.58581823        0.08142434        0.72201534        4.10000000        3.73191951
    10.29441397       17.66170125        0.08283113        0.72151444        4.10000000        3.72478093
    10.39592275       17.73758427        0.08424062        0.72101396        4.10000000        3.71766941
    10.49683114       17.81346729        0.08565293        0.72051383        4.10000000        3.71058443
    10.59715971       17.88935031        0.08706813        0.72001398        4.10000000        3.70352550
    10.69692789       17.96523333        0.08848631        0.71951436        4.10000000        3.69649214
    10.79615407       18.04111634        0.08990755        0.71901491        4.10000000        3.68948387
    10.89485569       18.11699936        0.09133193        0.71851556        4.10000000        3.68250024
    10.99304926       18.19288238        0.09275952        0.71801626        4.10000000        3.67554081
    11.09075047       18.26876540        0.09419037        0.71751697        4.10000000        3.66860514
    11.18797423       18.34464842        0.09562456        0.71701763        4.10000000        3.66169282
    11.28473472       18.42053144        0.09706214        0.71651819        4.10000000        3.65480344
    11.38104545       18.49641446        0.09850316        0.71601862        4.10000000        3.64793660
    11.47691928       18.57229748        0.09994767        0.71551887        4.10000000        3.64109191
    11.57236848       18.64818050        0.10139572        0.71501890        4.10000000        3.63426901
    11.66740478       18.72406352        0.10284735        0.71451867        4.10000000        3.62746752
    11.76203935       18.79994654        0.10430261        0.71401814        4.10000000        3.62068709
    11.85628293       18.87582956        0.10576152        0.71351728        4.10000000        3.61392737
    11.95014572       18.95171258        0.10722413        0.71301606        4.10000000        3.60718803
    12.04363754       19.02759560        0.10869048        0.71251443        4.10000000        3.60046874
    12.13676779       19.10347862        0.11016058        0.71201238        4.10000000        3.59376918
    12.22954547       19.17936164        0.11163447        0.71150987        4.10000000        3.58708904
    12.32197923       19.25524466        0.11311218        0.71100686        4.10000000        3.58042802
    12.41407736       19.33112767        0.11459374        0.71050334        4.10000000        3.57378582
    12.50584784       19.40701069        0.11607916        0.70999928        4.10000000        3.56716216
    12.59729834       19.48289371        0.11756847        0.70949464        4.10000000        3.56055676
    12.68843621       19.55877673        0.11906170        0.70898941        4.10000000        3.55396935
    12.77926855       19.63465975        0.12055885        0.70848357        4.10000000        3.54739966
    12.86980220       19.71054277        0.12205995        0.70797707        4.10000000        3.54084744
    12.96004373       19.78642579        0.12356501        0.70746992        4.10000000        3.53431243
    13.04999950       19.86230881        0.12507406        0.70696207        4.10000000        3.52779440
    13.13967561       19.93819183        0.12658709        0.70645352        4.10000000        3.52129310
    13.22907796       20.01407485        0.12810414        0.70594424        4.10000000        3.51480830
    13.31821227       20.08995787        0.12962521        0.70543421        4.10000000        3.50833979
    13.40708403       20.16584089        0.13115030        0.70492342        4.10000000        3.50188733
    13.49569855       20.24172391        0.13267944        0.70441184        4.10000000        3.49545072
    13.58406100       20.31760693        0.13421263        0.70389945        4.10000000        3.48902975
    13.67217632       20.39348995        0.13574988        0.70338625        4.10000000        3.48262421
    13.76004934       20.46937297        0.13729119        0.70287220        4.10000000        3.47623391
    13.84768470       20.54525599        0.13883658        0.70235731        4.10000000        3.46985865
    13.93508691       20.62113901        0.14038605        0.70184154        4.10000000        3.46349825
    14.02226035       20.69702202        0.14193961        0.70132489        4.10000000        3.45715253
    14.10920925       20.77290504        0.14349726        0.70080734        4.10000000        3.45082130
    14.19593769       20.84878806        0.14505900        0.70028887        4.10000000        3.44450439
    14.28244968       20.92467108        0.14662484        0.69976948        4.10000000        3.43820164
    14.36874905       21.00055410        0.14819479        0.69924914        4.10000000        3.43191288
    14.45483956       21.07643712        0.14976884        0.69872784        4.10000000        3.42563795
    14.54072484       21.15232014        0.15134699        0.69820558        4.10000000        3.41937669
    14.62640841       21.22820316        0.15292926        0.69768233        4.10000000        3.41312895
    14.71189372       21.30408618        0.15451563        0.69715809        4.10000000        3.40689458
    14.79718408       21.37996920        0.15610612        0.69663284        4.10000000        3.40067345
    14.88228274       21.45585222        0.15770071        0.69610658        4.10000000        3.39446539
    14.96719285       21.53173524        0.15929942        0.69557928        4.10000000        3.38827029
    15.05191745       21.60761826        0.16090223        0.69505095        4.10000000        3.38208800
    15.13645954       21.68350128        0.16250916        0.69452156        4.10000000        3.37591839
    15.22082201       21.75938430        0.16412019        0.69399111        4.10000000        3.36976134
    15.30500768       21.83526732        0.16573532        0.69345958        4.10000000        3.36361672
    15.38901930       21.91115034        0.16735456        0.69292697        4.10000000        3.35748441
    15.47285953       21.98703335        0.16897790        0.69239327        4.10000000        3.35136429
    15.55653100       22.06291637        0.17060534        0.69185846        4.10000000        3.34525625
    15.64003622       22.13879939        0.17223687        0.69132254        4.10000000        3.33916018
    15.72337767       22.21468241        0.17387249        0.69078550        4.10000000        3.33307596
    15.80655777       22.29056543        0.17551220        0.69024733        4.10000000        3.32700349
    15.88957887       22.36644845        0.17715600        0.68970801        4.10000000        3.32094267
    15.97244325       22.44233147        0.17880387        0.68916755        4.10000000        3.31489338
    16.05515315       22.51821449        0.18045582        0.68862593        4.10000000        3.30885554
    16.13771077       22.59409751        0.18211183        0.68808314        4.10000000        3.30282905
    16.22011821       22.66998053        0.18377192        0.68753917        4.10000000        3.29681381
    16.30237757       22.74586355        0.18543606        0.68699402        4.10000000        3.29080974
    16.38449086       22.82174657        0.18710426        0.68644768        4.10000000        3.28481673
    16.46646007       22.89762959        0.18877650        0.68590014        4.10000000        3.27883471
    16.54828713       22.97351261        0.19045279        0.68535140        4.10000000        3.27286358
    16.62997394       23.04939563        0.19213311        0.68480143        4.10000000        3.26690327
    16.71152234       23.12527865        0.19381747        0.68425025        4.10000000        3.26095370
    16.79293412       23.20116167        0.19550585        0.68369784        4.10000000        3.25501478
    16.87421107       23.27704469        0.19719824        0.68314419        4.10000000        3.24908643
    16.95535489       23.35292770        0.19889465        0.68258929        4.10000000        3.24316859
    17.03636727       23.42881072        0.20059505        0.68203315        4.10000000        3.23726117
    17.11724987       23.50469374        0.20229946        0.68147574        4.10000000        3.23136411
    17.19800428       23.58057676        0.20400785        0.68091707        4.10000000        3.22547734
    17.27863209       23.65645978        0.20572023        0.68035713        4.10000000        3.21960078
    17.35913485       23.73234280        0.20743657        0.67979591        4.10000000        3.21373437
    17.43951405       23.80822582        0.20915689        0.67923341        4.10000000        3.20787805
    17.51977117       23.88410884        0.21088116        0.67866962        4.10000000        3.20203175
    17.59990766       23.95999186        0.21260938        0.67810452        4.10000000        3.19619541
    17.67992494       24.03587488        0.21434154        0.67753813        4.10000000        3.19036896
    17.75982439       24.11175790        0.21607763        0.67697042        4.10000000        3.18455235
    17.83960736       24.18764092        0.21781765        0.67640140        4.10000000        3.17874553
    17.91927519       24.26352394        0.21956158        0.67583105        4.10000000        3.17294842
    17.99882917       24.33940696        0.22130942        0.67525938        4.10000000        3.16716099
    18.07827057       24.41528998        0.22306116        0.67468637        4.10000000        3.16138317
    18.15760066       24.49117300        0.22481679        0.67411202        4.10000000        3.15561491
    18.23682064       24.56705602        0.22657630        0.67353633        4.10000000        3.14985616
    18.31593171       24.64293903        0.22833968        0.67295929        4.10000000        3.14410687
    18.39493506       24.71882205        0.23010692        0.67238088        4.10000000        3.13836699
    18.47383183       24.79470507        0.23187801        0.67180112        4.10000000        3.13263648
    18.55262315       24.87058809        0.23365294        0.67121999        4.10000000        3.12691528
    18.63131014       24.94647111        0.23543171        0.67063748        4.10000000        3.12120335
    18.70989386       25.02235413        0.23721429        0.67005359        4.10000000        3.11550064
    18.78837539       25.09823715        0.23900070        0.66946832        4.10000000        3.10980712
    18.86675577       25.17412017        0.24079090        0.66888166        4.10000000        3.10412273
    18.94503602       25.25000319        0.24258490        0.66829360        4.10000000        3.09844744
    19.02321715       25.32588621        0.24438268        0.66770415        4.10000000        3.09278120
    19.10130014       25.40176923        0.24618423        0.66711329        4.10000000        3.08712398
    19.17928595       25.47765225        0.24798955        0.66652101        4.10000000        3.08147573
    19.25717554       25.55353527        0.24979861        0.66592732        4.10000000        3.07583642
    19.33496984       25.62941829        0.25161142        0.66533221        4.10000000        3.07020601
    19.41266975       25.70530131        0.25342796        0.66473567        4.10000000        3.06458446
    19.49027616       25.78118433        0.25524822        0.66413771        4.10000000        3.05897174
    19.56778998       25.85706735        0.25707219        0.66353830        4.10000000        3.05336781
    19.64521205       25.93295037        0.25889986        0.66293746        4.10000000        3.04777264
    19.72254322       26.00883338        0.26073122        0.66233516        4.10000000        3.04218619
    19.79978432       26.08471640        0.26256625        0.66173142        4.10000000        3.03660843
    19.87693618       26.16059942        0.26440495        0.66112622        4.10000000        3.03103933
    19.95399958       26.23648244        0.26624731        0.66051956        4.10000000        3.02547886
    20.03097533       26.31236546        0.26809331        0.65991144        4.10000000        3.01992698
    20.10786418       26.38824848        0.26994294        0.65930184        4.10000000        3.01438367
    20.18466691       26.46413150        0.27179619        0.65869077        4.10000000        3.00884890
    20.26138426       26.54001452        0.27365305        0.65807822        4.10000000        3.00332263
    20.33801695       26.61589754        0.27551351        0.65746418        4.10000000        2.99780484
    20.41456572       26.69178056        0.27737756        0.65684865        4.10000000        2.99229550
    20.49103126       26.76766358        0.27924519        0.65623163        4.10000000        2.98679458
    20.56741428       26.84354660        0.28111637        0.65561311        4.10000000        2.98130206
    20.64371545       26.91942962        0.28299112        0.65499309        4.10000000        2.97581791
    20.71993545       26.99531264        0.28486940        0.65437156        4.10000000        2.97034210
    20.79607492       27.07119566        0.28675121        0.65374851        4.10000000        2.96487461
    20.87213453       27.14707868        0.28863653        0.65312395        4.10000000        2.95941541
    20.94811491       27.22296170        0.29052537        0.65249787        4.10000000        2.95396448
    21.02401668       27.29884471        0.29241769        0.65187025        4.10000000        2.94852180
    21.09984046       27.37472773        0.29431350        0.65124111        4.10000000        2.94308734
    21.17558685       27.45061075        0.29621278        0.65061043        4.10000000        2.93766108
    21.25125645       27.52649377        0.29811551        0.64997821        4.10000000        2.93224300
    21.32684984       27.60237679        0.30002169        0.64934444        4.10000000        2.92683306
    21.40236758       27.67825981        0.30193131        0.64870912        4.10000000        2.92143126
    21.47781026       27.75414283        0.30384434        0.64807225        4.10000000        2.91603758
