#  Theta paroi en deg Angle Choc en deg       Kp           Inverse Mach       Mach amont       Mach aval
     0.00000000       50.82260631        0.00000000        0.22480620        1.29000000
     2.17051245       50.82378164        0.01055996        0.21933635        1.29000000        1.28997121
     2.49560568       50.82542612        0.01345375        0.21783224        1.29000000        1.28993094
     2.88832335       50.82847809        0.01731330        0.21582262        1.29000000        1.28985620
     3.33753799       50.83387586        0.02218813        0.21327853        1.29000000        1.28972403
     3.81484174       50.84255776        0.02787464        0.21030246        1.29000000        1.28951150
     4.30186758       50.85546212        0.03418582        0.20698874        1.29000000        1.28919570
     4.78952481       50.87352725        0.04099447        0.20340090        1.29000000        1.28875382
     5.27387466       50.89769148        0.04822008        0.19957838        1.29000000        1.28816314
     5.75352603       50.92889313        0.05581262        0.19554478        1.29000000        1.28740108
     6.22831010       50.96807053        0.06374166        0.19131341        1.29000000        1.28644527
     6.61833182       51.00724792        0.07055415        0.18766207        1.29000000        1.28549060
     6.95303657       51.04642531        0.07661055        0.18440342        1.29000000        1.28453708
     7.24841985       51.08560271        0.08211386        0.18143196        1.29000000        1.28358470
     7.51422502       51.12478010        0.08719130        0.17868149        1.29000000        1.28263347
     7.75686504       51.16395749        0.09192861        0.17610742        1.29000000        1.28168338
     7.98080470       51.20313489        0.09638669        0.17367806        1.29000000        1.28073443
     8.18928793       51.24231228        0.10061060        0.17136995        1.29000000        1.27978661
     8.38475220       51.28148967        0.10463468        0.16916521        1.29000000        1.27883992
     8.56907934       51.32066707        0.10848585        0.16704982        1.29000000        1.27789437
     8.74375512       51.35984446        0.11218561        0.16501259        1.29000000        1.27694994
     8.90997493       51.39902186        0.11575146        0.16304439        1.29000000        1.27600663
     9.06871599       51.43819925        0.11919786        0.16113770        1.29000000        1.27506445
     9.22078832       51.47737664        0.12253692        0.15928620        1.29000000        1.27412339
     9.36687145       51.51655404        0.12577888        0.15748457        1.29000000        1.27318344
     9.50754156       51.55573143        0.12893250        0.15572822        1.29000000        1.27224461
     9.64329174       51.59490882        0.13200533        0.15401324        1.29000000        1.27130689
     9.77454753       51.63408622        0.13500393        0.15233619        1.29000000        1.27037028
     9.90167895       51.67326361        0.13793406        0.15069407        1.29000000        1.26943478
    10.02500994       51.71244101        0.14080079        0.14908425        1.29000000        1.26850039
    10.14482582       51.75161840        0.14360860        0.14750438        1.29000000        1.26756709
    10.26137936       51.79079579        0.14636149        0.14595238        1.29000000        1.26663490
    10.37489555       51.82997319        0.14906304        0.14442638        1.29000000        1.26570381
    10.48557574       51.86915058        0.15171648        0.14292470        1.29000000        1.26477381
    10.59360074       51.90832797        0.15432472        0.14144581        1.29000000        1.26384490
    10.69913372       51.94750537        0.15689038        0.13998836        1.29000000        1.26291708
    10.80232238       51.98668276        0.15941587        0.13855108        1.29000000        1.26199036
    10.90330094       52.02586015        0.16190338        0.13713283        1.29000000        1.26106472
    11.00219172       52.06503755        0.16435490        0.13573257        1.29000000        1.26014016
    11.09910659       52.10421494        0.16677227        0.13434934        1.29000000        1.25921669
    11.19414808       52.14339234        0.16915720        0.13298226        1.29000000        1.25829429
    11.28741046       52.18256973        0.17151123        0.13163050        1.29000000        1.25737297
    11.37898061       52.22174712        0.17383581        0.13029332        1.29000000        1.25645273
    11.46893879       52.26092452        0.17613228        0.12897002        1.29000000        1.25553356
    11.55735931       52.30010191        0.17840189        0.12765995        1.29000000        1.25461546
    11.64431108       52.33927930        0.18064578        0.12636250        1.29000000        1.25369843
    11.72985822       52.37845670        0.18286505        0.12507712        1.29000000        1.25278246
    11.81406038       52.41763409        0.18506069        0.12380326        1.29000000        1.25186756
    11.89697325       52.45681149        0.18723365        0.12254045        1.29000000        1.25095372
    11.97864890       52.49598888        0.18938482        0.12128821        1.29000000        1.25004094
    12.05913601       52.53516627        0.19151501        0.12004612        1.29000000        1.24912922
    12.13848031       52.57434367        0.19362502        0.11881377        1.29000000        1.24821855
    12.21672466       52.61352106        0.19571558        0.11759077        1.29000000        1.24730894
    12.29390938       52.65269845        0.19778737        0.11637677        1.29000000        1.24640038
    12.37007247       52.69187585        0.19984106        0.11517141        1.29000000        1.24549287
    12.44524970       52.73105324        0.20187725        0.11397438        1.29000000        1.24458640
    12.51947488       52.77023063        0.20389654        0.11278537        1.29000000        1.24368098
    12.59277993       52.80940803        0.20589947        0.11160409        1.29000000        1.24277660
    12.66519505       52.84858542        0.20788656        0.11043028        1.29000000        1.24187327
    12.73674886       52.88776282        0.20985833        0.10926366        1.29000000        1.24097097
    12.80746851       52.92694021        0.21181522        0.10810399        1.29000000        1.24006971
    12.87737971       52.96611760        0.21375771        0.10695103        1.29000000        1.23916949
    12.94650694       53.00529500        0.21568621        0.10580457        1.29000000        1.23827029
    13.01487345       53.04447239        0.21760113        0.10466438        1.29000000        1.23737213
    13.08250137       53.08364978        0.21950286        0.10353027        1.29000000        1.23647500
    13.14941179       53.12282718        0.22139176        0.10240203        1.29000000        1.23557890
    13.21562479       53.16200457        0.22326820        0.10127949        1.29000000        1.23468382
    13.28115956       53.20118197        0.22513251        0.10016247        1.29000000        1.23378976
    13.34603442       53.24035936        0.22698502        0.09905080        1.29000000        1.23289673
    13.41026686       53.27953675        0.22882602        0.09794431        1.29000000        1.23200472
    13.47387359       53.31871415        0.23065583        0.09684284        1.29000000        1.23111372
    13.53687065       53.35789154        0.23247472        0.09574626        1.29000000        1.23022374
    13.59927336       53.39706893        0.23428296        0.09465442        1.29000000        1.22933477
    13.66109641       53.43624633        0.23608082        0.09356717        1.29000000        1.22844682
    13.72235389       53.47542372        0.23786854        0.09248439        1.29000000        1.22755988
    13.78305933       53.51460111        0.23964637        0.09140596        1.29000000        1.22667394
    13.84322567       53.55377851        0.24141454        0.09033174        1.29000000        1.22578901
    13.90286539       53.59295590        0.24317327        0.08926162        1.29000000        1.22490509
    13.96199048       53.63213330        0.24492277        0.08819550        1.29000000        1.22402217
    14.02061244       53.67131069        0.24666325        0.08713325        1.29000000        1.22314025
    14.07874237       53.71048808        0.24839492        0.08607478        1.29000000        1.22225933
    14.13639093       53.74966548        0.25011795        0.08501999        1.29000000        1.22137941
    14.19356839       53.78884287        0.25183254        0.08396877        1.29000000        1.22050048
    14.25028467       53.82802026        0.25353886        0.08292104        1.29000000        1.21962255
    14.30654930       53.86719766        0.25523709        0.08187670        1.29000000        1.21874561
    14.36237148       53.90637505        0.25692739        0.08083566        1.29000000        1.21786966
    14.41776013       53.94555245        0.25860991        0.07979785        1.29000000        1.21699471
    14.47272379       53.98472984        0.26028482        0.07876317        1.29000000        1.21612073
    14.52727077       54.02390723        0.26195227        0.07773156        1.29000000        1.21524775
    14.58140906       54.06308463        0.26361239        0.07670293        1.29000000        1.21437575
    14.63514640       54.10226202        0.26526533        0.07567721        1.29000000        1.21350473
    14.68849028       54.14143941        0.26691123        0.07465432        1.29000000        1.21263469
    14.74144793       54.18061681        0.26855021        0.07363421        1.29000000        1.21176564
    14.79402635       54.21979420        0.27018240        0.07261679        1.29000000        1.21089756
    14.84623233       54.25897159        0.27180793        0.07160202        1.29000000        1.21003045
    14.89807243       54.29814899        0.27342691        0.07058981        1.29000000        1.20916432
    14.94955301       54.33732638        0.27503946        0.06958012        1.29000000        1.20829917
    15.00068025       54.37650378        0.27664568        0.06857288        1.29000000        1.20743498
    15.05146010       54.41568117        0.27824570        0.06756803        1.29000000        1.20657177
    15.10189838       54.45485856        0.27983961        0.06656552        1.29000000        1.20570952
    15.15200070       54.49403596        0.28142752        0.06556530        1.29000000        1.20484824
    15.20177252       54.53321335        0.28300952        0.06456730        1.29000000        1.20398792
    15.25121913       54.57239074        0.28458572        0.06357149        1.29000000        1.20312857
    15.30034569       54.61156814        0.28615620        0.06257781        1.29000000        1.20227018
    15.34915717       54.65074553        0.28772106        0.06158620        1.29000000        1.20141275
    15.39765843       54.68992293        0.28928038        0.06059664        1.29000000        1.20055628
    15.44585419       54.72910032        0.29083426        0.05960906        1.29000000        1.19970077
    15.49374903       54.76827771        0.29238276        0.05862342        1.29000000        1.19884621
    15.54134740       54.80745511        0.29392599        0.05763968        1.29000000        1.19799261
    15.58865365       54.84663250        0.29546401        0.05665780        1.29000000        1.19713996
    15.63567199       54.88580989        0.29699690        0.05567774        1.29000000        1.19628827
    15.68240652       54.92498729        0.29852473        0.05469946        1.29000000        1.19543752
    15.72886123       54.96416468        0.30004759        0.05372291        1.29000000        1.19458772
    15.77504001       55.00334208        0.30156553        0.05274806        1.29000000        1.19373887
    15.82094665       55.04251947        0.30307864        0.05177487        1.29000000        1.19289097
    15.86658482       55.08169686        0.30458697        0.05080331        1.29000000        1.19204401
    15.91195814       55.12087426        0.30609060        0.04983334        1.29000000        1.19119799
    15.95707010       55.16005165        0.30758958        0.04886493        1.29000000        1.19035292
    16.00192411       55.19922904        0.30908398        0.04789804        1.29000000        1.18950878
    16.04652348       55.23840644        0.31057386        0.04693264        1.29000000        1.18866559
    16.09087148       55.27758383        0.31205928        0.04596870        1.29000000        1.18782333
    16.13497126       55.31676122        0.31354029        0.04500618        1.29000000        1.18698201
    16.17882590       55.35593862        0.31501696        0.04404506        1.29000000        1.18614162
    16.22243842       55.39511601        0.31648934        0.04308531        1.29000000        1.18530217
    16.26581175       55.43429341        0.31795748        0.04212690        1.29000000        1.18446365
    16.30894876       55.47347080        0.31942143        0.04116980        1.29000000        1.18362606
    16.35185225       55.51264819        0.32088125        0.04021397        1.29000000        1.18278940
    16.39452495       55.55182559        0.32233698        0.03925941        1.29000000        1.18195367
    16.43696953       55.59100298        0.32378868        0.03830607        1.29000000        1.18111887
    16.47918859       55.63018037        0.32523639        0.03735393        1.29000000        1.18028500
    16.52118470       55.66935777        0.32668016        0.03640298        1.29000000        1.17945204
    16.56296032       55.70853516        0.32812004        0.03545317        1.29000000        1.17862002
    16.60451790       55.74771256        0.32955606        0.03450449        1.29000000        1.17778891
    16.64585979       55.78688995        0.33098827        0.03355692        1.29000000        1.17695873
    16.68698835       55.82606734        0.33241672        0.03261043        1.29000000        1.17612946
    16.72790583       55.86524474        0.33384144        0.03166500        1.29000000        1.17530111
    16.76861445       55.90442213        0.33526248        0.03072061        1.29000000        1.17447369
    16.80911638       55.94359952        0.33667988        0.02977723        1.29000000        1.17364717
    16.84941376       55.98277692        0.33809367        0.02883485        1.29000000        1.17282158
    16.88950865       56.02195431        0.33950390        0.02789344        1.29000000        1.17199689
    16.92940309       56.06113170        0.34091059        0.02695298        1.29000000        1.17117312
    16.96909908       56.10030910        0.34231379        0.02601346        1.29000000        1.17035026
    17.00859856       56.13948649        0.34371354        0.02507485        1.29000000        1.16952831
    17.04790343       56.17866389        0.34510986        0.02413714        1.29000000        1.16870727
    17.08701557       56.21784128        0.34650279        0.02320030        1.29000000        1.16788714
    17.12593679       56.25701867        0.34789236        0.02226432        1.29000000        1.16706791
    17.16466890       56.29619607        0.34927862        0.02132919        1.29000000        1.16624960
    17.20321363       56.33537346        0.35066158        0.02039487        1.29000000        1.16543218
    17.24157271       56.37455085        0.35204128        0.01946137        1.29000000        1.16461567
    17.27974782       56.41372825        0.35341775        0.01852865        1.29000000        1.16380006
    17.31774061       56.45290564        0.35479102        0.01759670        1.29000000        1.16298536
    17.35555269       56.49208304        0.35616113        0.01666551        1.29000000        1.16217155
    17.39318564       56.53126043        0.35752809        0.01573506        1.29000000        1.16135864
    17.43064101       56.57043782        0.35889194        0.01480534        1.29000000        1.16054663
    17.46792033       56.60961522        0.36025270        0.01387633        1.29000000        1.15973552
    17.50502507       56.64879261        0.36161041        0.01294801        1.29000000        1.15892531
    17.54195670       56.68797000        0.36296508        0.01202037        1.29000000        1.15811599
    17.57871666       56.72714740        0.36431675        0.01109340        1.29000000        1.15730756
    17.61530634       56.76632479        0.36566544        0.01016708        1.29000000        1.15650003
    17.65172712       56.80550218        0.36701118        0.00924140        1.29000000        1.15569338
    17.68798036       56.84467958        0.36835398        0.00831635        1.29000000        1.15488763
    17.72406737       56.88385697        0.36969388        0.00739190        1.29000000        1.15408277
    17.75998945       56.92303437        0.37103089        0.00646806        1.29000000        1.15327880
    17.79574789       56.96221176        0.37236505        0.00554480        1.29000000        1.15247572
    17.83134392       57.00138915        0.37369637        0.00462211        1.29000000        1.15167352
    17.86677879       57.04056655        0.37502487        0.00369999        1.29000000        1.15087221
    17.90205368       57.07974394        0.37635058        0.00277841        1.29000000        1.15007179
    17.93716979       57.11892133        0.37767352        0.00185738        1.29000000        1.14927225
    17.97212826       57.15809873        0.37899370        0.00093686        1.29000000        1.14847359
    18.00693026       57.19727612        0.38031116        0.00001687        1.29000000        1.14767582
    18.04157687       57.23645352        0.38162591       -0.00090263        1.29000000        1.14687892
    18.07606921       57.27563091        0.38293796       -0.00182163        1.29000000        1.14608291
    18.11040836       57.31480830        0.38424735       -0.00274015        1.29000000        1.14528778
    18.14459536       57.35398570        0.38555408       -0.00365820        1.29000000        1.14449352
    18.17863126       57.39316309        0.38685819       -0.00457579        1.29000000        1.14370015
    18.21251707       57.43234048        0.38815967       -0.00549293        1.29000000        1.14290765
    18.24625381       57.47151788        0.38945856       -0.00640963        1.29000000        1.14211602
    18.27984244       57.51069527        0.39075487       -0.00732589        1.29000000        1.14132527
    18.31328395       57.54987266        0.39204862       -0.00824174        1.29000000        1.14053540
    18.34657928       57.58905006        0.39333983       -0.00915717        1.29000000        1.13974640
    18.37972935       57.62822745        0.39462850       -0.01007221        1.29000000        1.13895827
    18.41273509       57.66740485        0.39591467       -0.01098684        1.29000000        1.13817101
    18.44559740       57.70658224        0.39719834       -0.01190110        1.29000000        1.13738463
    18.47831716       57.74575963        0.39847953       -0.01281498        1.29000000        1.13659911
    18.51089524       57.78493703        0.39975826       -0.01372849        1.29000000        1.13581447
    18.54333249       57.82411442        0.40103454       -0.01464164        1.29000000        1.13503069
    18.57562976       57.86329181        0.40230838       -0.01555444        1.29000000        1.13424778
