#  Theta paroi en deg Angle Choc en deg       Kp           Inverse Mach       Mach amont       Mach aval
     0.00000000       14.47751219        0.00000000        0.75000000        4.00000000
     1.33067146       14.47977786        0.00288383        0.74850334        4.00000000        3.99973202
     1.61038750       14.48294794        0.00395910        0.74795394        4.00000000        3.99935718
     1.90905705       14.48883124        0.00524099        0.74730492        4.00000000        3.99866186
     2.23066968       14.49923656        0.00676415        0.74654192        4.00000000        3.99743321
     2.56352474       14.51597271        0.00848640        0.74568961        4.00000000        3.99545996
     2.90103487       14.54084851        0.01037599        0.74476681        4.00000000        3.99253366
     3.24117675       14.57567277        0.01241989        0.74378266        4.00000000        3.98845028
     3.58428625       14.62225430        0.01461868        0.74273960        4.00000000        3.98301211
     3.93176721       14.68240190        0.01698202        0.74163588        4.00000000        3.97602985
     4.28547090       14.75792439        0.01952596        0.74046709        4.00000000        3.96732479
     4.58471957       14.83344687        0.02178565        0.73944491        4.00000000        3.95868711
     4.84865321       14.90896936        0.02385962        0.73851942        4.00000000        3.95011508
     5.08759812       14.98449185        0.02580230        0.73766307        4.00000000        3.94160703
     5.30781316       15.06001434        0.02764727        0.73685887        4.00000000        3.93316134
     5.51340182       15.13553683        0.02941682        0.73609553        4.00000000        3.92477645
     5.70721197       15.21105931        0.03112662        0.73536511        4.00000000        3.91645084
     5.89130724       15.28658180        0.03278809        0.73466182        4.00000000        3.90818306
     6.06723459       15.36210429        0.03440987        0.73398127        4.00000000        3.89997167
     6.23618597       15.43762678        0.03599864        0.73332005        4.00000000        3.89181530
     6.39910063       15.51314926        0.03755969        0.73267545        4.00000000        3.88371262
     6.55673306       15.58867175        0.03909729        0.73204531        4.00000000        3.87566234
     6.70969907       15.66419424        0.04061492        0.73142782        4.00000000        3.86766320
     6.85850836       15.73971673        0.04211548        0.73082148        4.00000000        3.85971400
     7.00358799       15.81523922        0.04360138        0.73022506        4.00000000        3.85181354
     7.14529956       15.89076170        0.04507469        0.72963747        4.00000000        3.84396071
     7.28395221       15.96628419        0.04653715        0.72905780        4.00000000        3.83615438
     7.41981239       16.04180668        0.04799028        0.72848526        4.00000000        3.82839348
     7.55311161       16.11732917        0.04943539        0.72791915        4.00000000        3.82067698
     7.68405227       16.19285165        0.05087362        0.72735887        4.00000000        3.81300387
     7.81281254       16.26837414        0.05230597        0.72680387        4.00000000        3.80537316
     7.93955006       16.34389663        0.05373334        0.72625369        4.00000000        3.79778391
     8.06440507       16.41941912        0.05515651        0.72570790        4.00000000        3.79023519
     8.18750298       16.49494161        0.05657617        0.72516611        4.00000000        3.78272611
     8.30895630       16.57046409        0.05799296        0.72462798        4.00000000        3.77525580
     8.42886649       16.64598658        0.05940744        0.72409320        4.00000000        3.76782342
     8.54732536       16.72150907        0.06082010        0.72356149        4.00000000        3.76042814
     8.66441627       16.79703156        0.06223142        0.72303259        4.00000000        3.75306917
     8.78021514       16.87255404        0.06364180        0.72250626        4.00000000        3.74574574
     8.89479137       16.94807653        0.06505162        0.72198229        4.00000000        3.73845709
     9.00820855       17.02359902        0.06646121        0.72146049        4.00000000        3.73120251
     9.12052511       17.09912151        0.06787091        0.72094067        4.00000000        3.72398127
     9.23179486       17.17464400        0.06928098        0.72042265        4.00000000        3.71679270
     9.34206754       17.25016648        0.07069170        0.71990629        4.00000000        3.70963612
     9.45138915       17.32568897        0.07210330        0.71939144        4.00000000        3.70251089
     9.55980233       17.40121146        0.07351600        0.71887797        4.00000000        3.69541636
     9.66734676       17.47673395        0.07493001        0.71836575        4.00000000        3.68835194
     9.77405936       17.55225644        0.07634552        0.71785466        4.00000000        3.68131702
     9.87997457       17.62777892        0.07776270        0.71734459        4.00000000        3.67431101
     9.98512459       17.70330141        0.07918172        0.71683544        4.00000000        3.66733337
    10.08953956       17.77882390        0.08060272        0.71632711        4.00000000        3.66038353
    10.19324770       17.85434639        0.08202584        0.71581952        4.00000000        3.65346097
    10.29627556       17.92986887        0.08345121        0.71531257        4.00000000        3.64656517
    10.39864806       18.00539136        0.08487895        0.71480619        4.00000000        3.63969562
    10.50038871       18.08091385        0.08630917        0.71430030        4.00000000        3.63285183
    10.60151961       18.15643634        0.08774197        0.71379483        4.00000000        3.62603332
    10.70206169       18.23195883        0.08917746        0.71328970        4.00000000        3.61923964
    10.80203471       18.30748131        0.09061572        0.71278487        4.00000000        3.61247032
    10.90145734       18.38300380        0.09205684        0.71228026        4.00000000        3.60572493
    11.00034730       18.45852629        0.09350090        0.71177581        4.00000000        3.59900304
    11.09872138       18.53404878        0.09494796        0.71127148        4.00000000        3.59230424
    11.19659552       18.60957126        0.09639810        0.71076720        4.00000000        3.58562811
    11.29398488       18.68509375        0.09785139        0.71026294        4.00000000        3.57897427
    11.39090387       18.76061624        0.09930788        0.70975863        4.00000000        3.57234233
    11.48736619       18.83613873        0.10076763        0.70925424        4.00000000        3.56573191
    11.58338493       18.91166122        0.10223070        0.70874973        4.00000000        3.55914266
    11.67897254       18.98718370        0.10369713        0.70824504        4.00000000        3.55257422
    11.77414095       19.06270619        0.10516696        0.70774014        4.00000000        3.54602624
    11.86890151       19.13822868        0.10664025        0.70723499        4.00000000        3.53949839
    11.96326510       19.21375117        0.10811704        0.70672956        4.00000000        3.53299034
    12.05724210       19.28927365        0.10959735        0.70622381        4.00000000        3.52650178
    12.15084248       19.36479614        0.11108124        0.70571771        4.00000000        3.52003239
    12.24407580       19.44031863        0.11256873        0.70521122        4.00000000        3.51358187
    12.33695117       19.51584112        0.11405985        0.70470431        4.00000000        3.50714992
    12.42947739       19.59136361        0.11555463        0.70419696        4.00000000        3.50073627
    12.52166289       19.66688609        0.11705310        0.70368913        4.00000000        3.49434063
    12.61351574       19.74240858        0.11855529        0.70318080        4.00000000        3.48796273
    12.70504373       19.81793107        0.12006122        0.70267194        4.00000000        3.48160230
    12.79625436       19.89345356        0.12157092        0.70216252        4.00000000        3.47525909
    12.88715481       19.96897605        0.12308440        0.70165252        4.00000000        3.46893285
    12.97775202       20.04449853        0.12460168        0.70114191        4.00000000        3.46262333
    13.06805266       20.12002102        0.12612278        0.70063068        4.00000000        3.45633028
    13.15806319       20.19554351        0.12764772        0.70011880        4.00000000        3.45005349
    13.24778979       20.27106600        0.12917652        0.69960624        4.00000000        3.44379272
    13.33723848       20.34658848        0.13070919        0.69909299        4.00000000        3.43754776
    13.42641501       20.42211097        0.13224574        0.69857903        4.00000000        3.43131837
    13.51532500       20.49763346        0.13378618        0.69806433        4.00000000        3.42510437
    13.60397382       20.57315595        0.13533054        0.69754888        4.00000000        3.41890554
    13.69236669       20.64867844        0.13687881        0.69703266        4.00000000        3.41272168
    13.78050866       20.72420092        0.13843101        0.69651566        4.00000000        3.40655260
    13.86840461       20.79972341        0.13998714        0.69599784        4.00000000        3.40039810
    13.95605926       20.87524590        0.14154722        0.69547920        4.00000000        3.39425801
    14.04347718       20.95076839        0.14311126        0.69495973        4.00000000        3.38813215
    14.13066280       21.02629087        0.14467925        0.69443939        4.00000000        3.38202034
    14.21762041       21.10181336        0.14625121        0.69391819        4.00000000        3.37592240
    14.30435417       21.17733585        0.14782714        0.69339610        4.00000000        3.36983817
    14.39086812       21.25285834        0.14940704        0.69287311        4.00000000        3.36376749
    14.47716618       21.32838083        0.15099092        0.69234921        4.00000000        3.35771020
    14.56325213       21.40390331        0.15257878        0.69182437        4.00000000        3.35166615
    14.64912965       21.47942580        0.15417063        0.69129859        4.00000000        3.34563517
    14.73480234       21.55494829        0.15576647        0.69077186        4.00000000        3.33961714
    14.82027367       21.63047078        0.15736630        0.69024416        4.00000000        3.33361189
    14.90554701       21.70599326        0.15897011        0.68971548        4.00000000        3.32761930
    14.99062564       21.78151575        0.16057792        0.68918580        4.00000000        3.32163923
    15.07551276       21.85703824        0.16218972        0.68865512        4.00000000        3.31567154
    15.16021147       21.93256073        0.16380552        0.68812342        4.00000000        3.30971610
    15.24472479       22.00808322        0.16542530        0.68759070        4.00000000        3.30377279
    15.32905566       22.08360570        0.16704908        0.68705693        4.00000000        3.29784148
    15.41320693       22.15912819        0.16867685        0.68652211        4.00000000        3.29192205
    15.49718139       22.23465068        0.17030860        0.68598623        4.00000000        3.28601438
    15.58098174       22.31017317        0.17194434        0.68544928        4.00000000        3.28011837
    15.66461064       22.38569566        0.17358407        0.68491125        4.00000000        3.27423389
    15.74807064       22.46121814        0.17522778        0.68437213        4.00000000        3.26836084
    15.83136426       22.53674063        0.17687547        0.68383190        4.00000000        3.26249911
    15.91449394       22.61226312        0.17852713        0.68329057        4.00000000        3.25664860
    15.99746206       22.68778561        0.18018276        0.68274811        4.00000000        3.25080920
    16.08027094       22.76330809        0.18184237        0.68220452        4.00000000        3.24498082
    16.16292285       22.83883058        0.18350594        0.68165980        4.00000000        3.23916335
    16.24542000       22.91435307        0.18517347        0.68111392        4.00000000        3.23335672
    16.32776455       22.98987556        0.18684495        0.68056689        4.00000000        3.22756081
    16.40995860       23.06539805        0.18852039        0.68001870        4.00000000        3.22177555
    16.49200420       23.14092053        0.19019977        0.67946933        4.00000000        3.21600084
    16.57390338       23.21644302        0.19188309        0.67891878        4.00000000        3.21023660
    16.65565807       23.29196551        0.19357035        0.67836704        4.00000000        3.20448275
    16.73727020       23.36748800        0.19526154        0.67781410        4.00000000        3.19873920
    16.81874164       23.44301048        0.19695665        0.67725995        4.00000000        3.19300587
    16.90007421       23.51853297        0.19865568        0.67670460        4.00000000        3.18728269
    16.98126970       23.59405546        0.20035862        0.67614802        4.00000000        3.18156958
    17.06232987       23.66957795        0.20206546        0.67559021        4.00000000        3.17586646
    17.14325641       23.74510044        0.20377620        0.67503117        4.00000000        3.17017327
    17.22405099       23.82062292        0.20549084        0.67447089        4.00000000        3.16448993
    17.30471525       23.89614541        0.20720936        0.67390935        4.00000000        3.15881637
    17.38525078       23.97166790        0.20893175        0.67334656        4.00000000        3.15315253
    17.46565914       24.04719039        0.21065802        0.67278251        4.00000000        3.14749833
    17.54594187       24.12271287        0.21238815        0.67221718        4.00000000        3.14185372
    17.62610046       24.19823536        0.21412213        0.67165058        4.00000000        3.13621863
    17.70613637       24.27375785        0.21585996        0.67108269        4.00000000        3.13059300
    17.78605104       24.34928034        0.21760163        0.67051351        4.00000000        3.12497677
    17.86584586       24.42480283        0.21934713        0.66994303        4.00000000        3.11936988
    17.94552222       24.50032531        0.22109646        0.66937126        4.00000000        3.11377228
    18.02508146       24.57584780        0.22284959        0.66879817        4.00000000        3.10818390
    18.10452489       24.65137029        0.22460654        0.66822376        4.00000000        3.10260470
    18.18385381       24.72689278        0.22636728        0.66764803        4.00000000        3.09703461
    18.26306948       24.80241527        0.22813181        0.66707098        4.00000000        3.09147360
    18.34217314       24.87793775        0.22990012        0.66649259        4.00000000        3.08592159
    18.42116601       24.95346024        0.23167220        0.66591286        4.00000000        3.08037856
    18.50004926       25.02898273        0.23344804        0.66533178        4.00000000        3.07484444
    18.57882408       25.10450522        0.23522764        0.66474935        4.00000000        3.06931919
    18.65749161       25.18002770        0.23701097        0.66416556        4.00000000        3.06380276
    18.73605295       25.25555019        0.23879805        0.66358041        4.00000000        3.05829511
    18.81450922       25.33107268        0.24058884        0.66299389        4.00000000        3.05279619
    18.89286150       25.40659517        0.24238335        0.66240599        4.00000000        3.04730596
    18.97111082       25.48211766        0.24418157        0.66181672        4.00000000        3.04182437
    19.04925825       25.55764014        0.24598348        0.66122605        4.00000000        3.03635139
    19.12730478       25.63316263        0.24778908        0.66063400        4.00000000        3.03088697
    19.20525143       25.70868512        0.24959835        0.66004055        4.00000000        3.02543108
    19.28309916       25.78420761        0.25141129        0.65944569        4.00000000        3.01998367
    19.36084894       25.85973009        0.25322789        0.65884943        4.00000000        3.01454470
    19.43850171       25.93525258        0.25504812        0.65825176        4.00000000        3.00911414
    19.51605840       26.01077507        0.25687200        0.65765266        4.00000000        3.00369195
    19.59351991       26.08629756        0.25869950        0.65705214        4.00000000        2.99827810
    19.67088712       26.16182005        0.26053061        0.65645020        4.00000000        2.99287255
    19.74816093       26.23734253        0.26236532        0.65584681        4.00000000        2.98747527
    19.82534219       26.31286502        0.26420363        0.65524199        4.00000000        2.98208621
    19.90243173       26.38838751        0.26604552        0.65463573        4.00000000        2.97670536
    19.97943039       26.46391000        0.26789098        0.65402801        4.00000000        2.97133268
    20.05633897       26.53943249        0.26974000        0.65341884        4.00000000        2.96596813
    20.13315829       26.61495497        0.27159257        0.65280822        4.00000000        2.96061168
    20.20988911       26.69047746        0.27344868        0.65219612        4.00000000        2.95526331
    20.28653222       26.76599995        0.27530832        0.65158256        4.00000000        2.94992298
    20.36308836       26.84152244        0.27717147        0.65096752        4.00000000        2.94459067
    20.43955827       26.91704492        0.27903813        0.65035100        4.00000000        2.93926635
    20.51594270       26.99256741        0.28090828        0.64973300        4.00000000        2.93394998
    20.59224234       27.06808990        0.28278192        0.64911350        4.00000000        2.92864155
    20.66845792       27.14361239        0.28465902        0.64849252        4.00000000        2.92334102
    20.74459012       27.21913488        0.28653959        0.64787003        4.00000000        2.91804837
    20.82063961       27.29465736        0.28842360        0.64724604        4.00000000        2.91276357
    20.89660708       27.37017985        0.29031105        0.64662054        4.00000000        2.90748660
    20.97249316       27.44570234        0.29220193        0.64599352        4.00000000        2.90221743
    21.04829852       27.52122483        0.29409621        0.64536499        4.00000000        2.89695604
    21.12402378       27.59674731        0.29599390        0.64473493        4.00000000        2.89170241
    21.19966957       27.67226980        0.29789498        0.64410334        4.00000000        2.88645650
    21.27523649       27.74779229        0.29979944        0.64347022        4.00000000        2.88121830
    21.35072515       27.82331478        0.30170726        0.64283557        4.00000000        2.87598779
    21.42613615       27.89883727        0.30361844        0.64219937        4.00000000        2.87076494
    21.50147005       27.97435975        0.30553296        0.64156162        4.00000000        2.86554973
    21.57672745       28.04988224        0.30745081        0.64092232        4.00000000        2.86034214
