#  Theta paroi en deg Angle Choc en deg       Kp           Inverse Mach       Mach amont       Mach aval
     0.00000000       46.00698325        0.00000000        0.28057554        1.39000000
     2.19213413       46.00830304        0.01026423        0.27544753        1.39000000        1.38996303
     2.55740106       46.01014966        0.01338545        0.27388448        1.39000000        1.38991131
     2.98328316       46.01357677        0.01742464        0.27185910        1.39000000        1.38981532
     3.46113859       46.01963803        0.02243659        0.26934174        1.39000000        1.38964559
     3.96374702       46.02938710        0.02822135        0.26643030        1.39000000        1.38937266
     4.47393120       46.04387764        0.03459981        0.26321251        1.39000000        1.38896713
     4.98349500       46.06416331        0.04145289        0.25974623        1.39000000        1.38839974
     5.48913832       46.09129777        0.04870732        0.25606640        1.39000000        1.38764136
     5.98994847       46.12633467        0.05631974        0.25219300        1.39000000        1.38666307
     6.48613893       46.17032769        0.06426594        0.24813623        1.39000000        1.38543623
     6.89431881       46.21432071        0.07109494        0.24463846        1.39000000        1.38421109
     7.24515007       46.25831372        0.07717007        0.24151776        1.39000000        1.38298763
     7.55526168       46.30230674        0.08269533        0.23867192        1.39000000        1.38176586
     7.83477083       46.34629976        0.08779824        0.23603707        1.39000000        1.38054575
     8.09033028       46.39029277        0.09256458        0.23357021        1.39000000        1.37932732
     8.32656830       46.43428579        0.09705517        0.23124085        1.39000000        1.37811055
     8.54684542       46.47827881        0.10131493        0.22902648        1.39000000        1.37689544
     8.75368533       46.52227182        0.10537806        0.22690994        1.39000000        1.37568198
     8.94903549       46.56626484        0.10927133        0.22487782        1.39000000        1.37447016
     9.13443283       46.61025786        0.11301609        0.22291941        1.39000000        1.37325999
     9.31111338       46.65425087        0.11662971        0.22102599        1.39000000        1.37205145
     9.48008727       46.69824389        0.12012652        0.21919037        1.39000000        1.37084454
     9.64219149       46.74223691        0.12351851        0.21740654        1.39000000        1.36963926
     9.79812804       46.78622993        0.12681581        0.21566942        1.39000000        1.36843559
     9.94849192       46.83022294        0.13002708        0.21397466        1.39000000        1.36723354
    10.09379220       46.87421596        0.13315978        0.21231851        1.39000000        1.36603309
    10.23446813       46.91820898        0.13622039        0.21069773        1.39000000        1.36483424
    10.37090158       46.96220199        0.13921458        0.20910946        1.39000000        1.36363700
    10.50342673       47.00619501        0.14214733        0.20755121        1.39000000        1.36244134
    10.63233792       47.05018803        0.14502308        0.20602074        1.39000000        1.36124727
    10.75789581       47.09418104        0.14784576        0.20451609        1.39000000        1.36005479
    10.88033240       47.13817406        0.15061888        0.20303548        1.39000000        1.35886387
    10.99985525       47.18216708        0.15334562        0.20157732        1.39000000        1.35767453
    11.11665075       47.22616009        0.15602882        0.20014019        1.39000000        1.35648676
    11.23088702       47.27015311        0.15867109        0.19872277        1.39000000        1.35530055
    11.34271629       47.31414613        0.16127476        0.19732388        1.39000000        1.35411589
    11.45227680       47.35813914        0.16384198        0.19594246        1.39000000        1.35293278
    11.55969459       47.40213216        0.16637471        0.19457750        1.39000000        1.35175122
    11.66508481       47.44612518        0.16887475        0.19322811        1.39000000        1.35057120
    11.76855310       47.49011819        0.17134377        0.19189345        1.39000000        1.34939271
    11.87019649       47.53411121        0.17378327        0.19057276        1.39000000        1.34821576
    11.97010443       47.57810423        0.17619468        0.18926531        1.39000000        1.34704033
    12.06835954       47.62209724        0.17857931        0.18797047        1.39000000        1.34586642
    12.16503827       47.66609026        0.18093835        0.18668760        1.39000000        1.34469403
    12.26021157       47.71008328        0.18327295        0.18541615        1.39000000        1.34352316
    12.35394538       47.75407629        0.18558416        0.18415558        1.39000000        1.34235379
    12.44630108       47.79806931        0.18787295        0.18290540        1.39000000        1.34118592
    12.53733597       47.84206233        0.19014025        0.18166514        1.39000000        1.34001955
    12.62710357       47.88605534        0.19238692        0.18043437        1.39000000        1.33885467
    12.71565400       47.93004836        0.19461376        0.17921269        1.39000000        1.33769128
    12.80303420       47.97404138        0.19682153        0.17799970        1.39000000        1.33652937
    12.88928830       48.01803439        0.19901094        0.17679505        1.39000000        1.33536895
    12.97445775       48.06202741        0.20118267        0.17559840        1.39000000        1.33421000
    13.05858156       48.10602043        0.20333735        0.17440942        1.39000000        1.33305252
    13.14169655       48.15001344        0.20547558        0.17322782        1.39000000        1.33189650
    13.22383742       48.19400646        0.20759792        0.17205331        1.39000000        1.33074195
    13.30503699       48.23799948        0.20970491        0.17088561        1.39000000        1.32958885
    13.38532631       48.28199249        0.21179706        0.16972447        1.39000000        1.32843721
    13.46473475       48.32598551        0.21387485        0.16856964        1.39000000        1.32728702
    13.54329020       48.36997853        0.21593873        0.16742090        1.39000000        1.32613827
    13.62101907       48.41397154        0.21798914        0.16627801        1.39000000        1.32499096
    13.69794651       48.45796456        0.22002650        0.16514078        1.39000000        1.32384508
    13.77409639       48.50195758        0.22205119        0.16400900        1.39000000        1.32270064
    13.84949143       48.54595060        0.22406359        0.16288247        1.39000000        1.32155762
    13.92415326       48.58994361        0.22606406        0.16176102        1.39000000        1.32041603
    13.99810253       48.63393663        0.22805293        0.16064448        1.39000000        1.31927586
    14.07135893       48.67792965        0.23003055        0.15953267        1.39000000        1.31813710
    14.14394122       48.72192266        0.23199720        0.15842544        1.39000000        1.31699975
    14.21586739       48.76591568        0.23395320        0.15732263        1.39000000        1.31586381
    14.28715458       48.80990870        0.23589883        0.15622411        1.39000000        1.31472927
    14.35781923       48.85390171        0.23783436        0.15512972        1.39000000        1.31359613
    14.42787706       48.89789473        0.23976005        0.15403934        1.39000000        1.31246438
    14.49734315       48.94188775        0.24167616        0.15295283        1.39000000        1.31133403
    14.56623194       48.98588076        0.24358291        0.15187008        1.39000000        1.31020506
    14.63455728       49.02987378        0.24548056        0.15079096        1.39000000        1.30907748
    14.70233249       49.07386680        0.24736930        0.14971536        1.39000000        1.30795127
    14.76957033       49.11785981        0.24924937        0.14864317        1.39000000        1.30682644
    14.83628309       49.16185283        0.25112097        0.14757428        1.39000000        1.30570298
    14.90248258       49.20584585        0.25298428        0.14650860        1.39000000        1.30458089
    14.96818015       49.24983886        0.25483951        0.14544601        1.39000000        1.30346016
    15.03338673       49.29383188        0.25668683        0.14438644        1.39000000        1.30234080
    15.09811286       49.33782490        0.25852642        0.14332978        1.39000000        1.30122279
    15.16236869       49.38181791        0.26035846        0.14227595        1.39000000        1.30010613
    15.22616398       49.42581093        0.26218309        0.14122487        1.39000000        1.29899082
    15.28950817       49.46980395        0.26400049        0.14017645        1.39000000        1.29787686
    15.35241036       49.51379696        0.26581081        0.13913061        1.39000000        1.29676424
    15.41487933       49.55778998        0.26761419        0.13808727        1.39000000        1.29565295
    15.47692357       49.60178300        0.26941077        0.13704636        1.39000000        1.29454301
    15.53855127       49.64577601        0.27120069        0.13600781        1.39000000        1.29343439
    15.59977034       49.68976903        0.27298409        0.13497156        1.39000000        1.29232710
    15.66058846       49.73376205        0.27476109        0.13393752        1.39000000        1.29122114
    15.72101302       49.77775506        0.27653182        0.13290564        1.39000000        1.29011649
    15.78105120       49.82174808        0.27829640        0.13187585        1.39000000        1.28901316
    15.84070991       49.86574110        0.28005494        0.13084809        1.39000000        1.28791115
    15.89999590       49.90973411        0.28180756        0.12982230        1.39000000        1.28681045
    15.95891566       49.95372713        0.28355437        0.12879843        1.39000000        1.28571105
    16.01747549       49.99772015        0.28529547        0.12777641        1.39000000        1.28461296
    16.07568151       50.04171316        0.28703096        0.12675620        1.39000000        1.28351617
    16.13353965       50.08570618        0.28876095        0.12573773        1.39000000        1.28242068
    16.19105565       50.12969920        0.29048553        0.12472097        1.39000000        1.28132648
    16.24823509       50.17369221        0.29220479        0.12370585        1.39000000        1.28023357
    16.30508337       50.21768523        0.29391883        0.12269233        1.39000000        1.27914195
    16.36160576       50.26167825        0.29562773        0.12168037        1.39000000        1.27805161
    16.41780736       50.30567127        0.29733158        0.12066991        1.39000000        1.27696255
    16.47369312       50.34966428        0.29903047        0.11966092        1.39000000        1.27587477
    16.52926787       50.39365730        0.30072446        0.11865334        1.39000000        1.27478827
    16.58453627       50.43765032        0.30241365        0.11764714        1.39000000        1.27370303
    16.63950288       50.48164333        0.30409811        0.11664227        1.39000000        1.27261907
    16.69417213       50.52563635        0.30577790        0.11563870        1.39000000        1.27153637
    16.74854832       50.56962937        0.30745312        0.11463639        1.39000000        1.27045493
    16.80263563       50.61362238        0.30912381        0.11363529        1.39000000        1.26937475
    16.85643815       50.65761540        0.31079006        0.11263537        1.39000000        1.26829583
    16.90995984       50.70160842        0.31245193        0.11163659        1.39000000        1.26721816
    16.96320455       50.74560143        0.31410948        0.11063892        1.39000000        1.26614174
    17.01617606       50.78959445        0.31576278        0.10964233        1.39000000        1.26506657
    17.06887802       50.83358747        0.31741188        0.10864678        1.39000000        1.26399265
    17.12131401       50.87758048        0.31905685        0.10765223        1.39000000        1.26291996
    17.17348749       50.92157350        0.32069775        0.10665866        1.39000000        1.26184851
    17.22540188       50.96556652        0.32233463        0.10566603        1.39000000        1.26077830
    17.27706046       51.00955953        0.32396755        0.10467432        1.39000000        1.25970932
    17.32846645       51.05355255        0.32559655        0.10368349        1.39000000        1.25864158
    17.37962301       51.09754557        0.32722170        0.10269351        1.39000000        1.25757505
    17.43053319       51.14153858        0.32884304        0.10170436        1.39000000        1.25650976
    17.48120001       51.18553160        0.33046063        0.10071600        1.39000000        1.25544568
    17.53162635       51.22952462        0.33207451        0.09972842        1.39000000        1.25438283
    17.58181509       51.27351763        0.33368473        0.09874157        1.39000000        1.25332119
    17.63176899       51.31751065        0.33529133        0.09775545        1.39000000        1.25226076
    17.68149077       51.36150367        0.33689437        0.09677002        1.39000000        1.25120154
    17.73098310       51.40549668        0.33849388        0.09578525        1.39000000        1.25014353
    17.78024854       51.44948970        0.34008991        0.09480113        1.39000000        1.24908673
    17.82928964       51.49348272        0.34168249        0.09381763        1.39000000        1.24803113
    17.87810888       51.53747573        0.34327168        0.09283472        1.39000000        1.24697673
    17.92670865       51.58146875        0.34485751        0.09185238        1.39000000        1.24592353
    17.97509132       51.62546177        0.34644001        0.09087059        1.39000000        1.24487152
    18.02325921       51.66945478        0.34801924        0.08988933        1.39000000        1.24382071
    18.07121457       51.71344780        0.34959522        0.08890858        1.39000000        1.24277108
    18.11895959       51.75744082        0.35116798        0.08792831        1.39000000        1.24172265
    18.16649645       51.80143383        0.35273758        0.08694850        1.39000000        1.24067539
    18.21382725       51.84542685        0.35430404        0.08596914        1.39000000        1.23962932
    18.26095405       51.88941987        0.35586739        0.08499020        1.39000000        1.23858443
    18.30787887       51.93341288        0.35742766        0.08401167        1.39000000        1.23754072
    18.35460369       51.97740590        0.35898490        0.08303352        1.39000000        1.23649818
    18.40113045       52.02139892        0.36053913        0.08205574        1.39000000        1.23545682
    18.44746102       52.06539194        0.36209039        0.08107831        1.39000000        1.23441662
    18.49359727       52.10938495        0.36363869        0.08010121        1.39000000        1.23337759
    18.53954101       52.15337797        0.36518408        0.07912442        1.39000000        1.23233973
    18.58529401       52.19737099        0.36672658        0.07814793        1.39000000        1.23130303
    18.63085802       52.24136400        0.36826622        0.07717171        1.39000000        1.23026749
    18.67623473       52.28535702        0.36980302        0.07619576        1.39000000        1.22923311
    18.72142580       52.32935004        0.37133703        0.07522005        1.39000000        1.22819989
    18.76643289       52.37334305        0.37286825        0.07424457        1.39000000        1.22716782
    18.81125758       52.41733607        0.37439671        0.07326930        1.39000000        1.22613690
    18.85590144       52.46132909        0.37592246        0.07229423        1.39000000        1.22510714
    18.90036600       52.50532210        0.37744549        0.07131935        1.39000000        1.22407851
    18.94465278       52.54931512        0.37896585        0.07034463        1.39000000        1.22305104
    18.98876325       52.59330814        0.38048355        0.06937007        1.39000000        1.22202471
    19.03269884       52.63730115        0.38199862        0.06839564        1.39000000        1.22099951
    19.07646099       52.68129417        0.38351109        0.06742134        1.39000000        1.21997546
    19.12005107       52.72528719        0.38502096        0.06644714        1.39000000        1.21895254
    19.16347046       52.76928020        0.38652827        0.06547305        1.39000000        1.21793076
    19.20672049       52.81327322        0.38803304        0.06449904        1.39000000        1.21691011
    19.24980245       52.85726624        0.38953528        0.06352509        1.39000000        1.21589059
    19.29271766       52.90125925        0.39103502        0.06255121        1.39000000        1.21487219
    19.33546734       52.94525227        0.39253228        0.06157737        1.39000000        1.21385493
    19.37805276       52.98924529        0.39402707        0.06060356        1.39000000        1.21283878
    19.42047511       53.03323830        0.39551942        0.05962976        1.39000000        1.21182376
    19.46273560       53.07723132        0.39700935        0.05865598        1.39000000        1.21080986
    19.50483537       53.12122434        0.39849687        0.05768219        1.39000000        1.20979708
    19.54677558       53.16521735        0.39998200        0.05670839        1.39000000        1.20878541
    19.58855735       53.20921037        0.40146477        0.05573455        1.39000000        1.20777485
    19.63018178       53.25320339        0.40294518        0.05476068        1.39000000        1.20676541
    19.67164997       53.29719640        0.40442325        0.05378675        1.39000000        1.20575708
    19.71296295       53.34118942        0.40589900        0.05281277        1.39000000        1.20474986
    19.75412178       53.38518244        0.40737245        0.05183871        1.39000000        1.20374374
    19.79512748       53.42917545        0.40884361        0.05086457        1.39000000        1.20273873
    19.83598106       53.47316847        0.41031250        0.04989033        1.39000000        1.20173482
    19.87668350       53.51716149        0.41177914        0.04891599        1.39000000        1.20073201
    19.91723576       53.56115450        0.41324353        0.04794153        1.39000000        1.19973030
    19.95763881       53.60514752        0.41470570        0.04696695        1.39000000        1.19872968
    19.99789356       53.64914054        0.41616565        0.04599224        1.39000000        1.19773016
    20.03800093       53.69313355        0.41762341        0.04501738        1.39000000        1.19673174
    20.07796184       53.73712657        0.41907898        0.04404237        1.39000000        1.19573440
    20.11777715       53.78111959        0.42053238        0.04306720        1.39000000        1.19473816
    20.15744774       53.82511261        0.42198363        0.04209185        1.39000000        1.19374301
    20.19697445       53.86910562        0.42343272        0.04111632        1.39000000        1.19274894
    20.23635813       53.91309864        0.42487969        0.04014061        1.39000000        1.19175595
