#  Theta paroi en deg Angle Choc en deg       Kp           Inverse Mach       Mach amont       Mach aval
     0.00000000       22.25862127        0.00000000        0.62121212        2.64000000
     1.73056909       22.26065352        0.00520623        0.61886788        2.64000000        2.63986904
     2.08659249       22.26349698        0.00712070        0.61801383        2.64000000        2.63968583
     2.47021434       22.26877412        0.00942484        0.61699149        2.64000000        2.63934590
     2.88431867       22.27810737        0.01217124        0.61578069        2.64000000        2.63874501
     3.31214669       22.29311920        0.01527181        0.61442365        2.64000000        2.63777931
     3.74381461       22.31543204        0.01865505        0.61295458        2.64000000        2.63634575
     4.17558492       22.34666834        0.02228219        0.61139278        2.64000000        2.63434249
     4.60694385       22.38845055        0.02613840        0.60974685        2.64000000        2.63166945
     5.03886804       22.44240113        0.03022438        0.60801865        2.64000000        2.62822891
     5.47298008       22.51014250        0.03455107        0.60620577        2.64000000        2.62392623
     5.83570011       22.57788388        0.03833153        0.60463570        2.64000000        2.61964257
     6.15210320       22.64562526        0.04175007        0.60322678        2.64000000        2.61537764
     6.43572564       22.71336664        0.04490894        0.60193375        2.64000000        2.61113116
     6.69477503       22.78110802        0.04787145        0.60072861        2.64000000        2.60690286
     6.93463414       22.84884940        0.05067983        0.59959271        2.64000000        2.60269248
     7.15903956       22.91659078        0.05336383        0.59851291        2.64000000        2.59849976
     7.37069944       22.98433216        0.05594522        0.59747958        2.64000000        2.59432442
     7.57164434       23.05207353        0.05844053        0.59648542        2.64000000        2.59016623
     7.76343900       23.11981491        0.06086259        0.59552478        2.64000000        2.58602493
     7.94731680       23.18755629        0.06322159        0.59459313        2.64000000        2.58190029
     8.12426855       23.25529767        0.06552576        0.59368683        2.64000000        2.57779205
     8.29510313       23.32303905        0.06778188        0.59280289        2.64000000        2.57369999
     8.46049018       23.39078043        0.06999558        0.59193881        2.64000000        2.56962388
     8.62099078       23.45852181        0.07217159        0.59109249        2.64000000        2.56556349
     8.77708015       23.52626318        0.07431394        0.59026213        2.64000000        2.56151860
     8.92916458       23.59400456        0.07642608        0.58944621        2.64000000        2.55748899
     9.07759434       23.66174594        0.07851101        0.58864339        2.64000000        2.55347444
     9.22267372       23.72948732        0.08057132        0.58785250        2.64000000        2.54947476
     9.36466890       23.79722870        0.08260930        0.58707253        2.64000000        2.54548972
     9.50381408       23.86497008        0.08462695        0.58630258        2.64000000        2.54151914
     9.64031660       23.93271146        0.08662606        0.58554183        2.64000000        2.53756280
     9.77436089       24.00045284        0.08860821        0.58478959        2.64000000        2.53362051
     9.90611182       24.06819421        0.09057483        0.58404521        2.64000000        2.52969209
    10.03571741       24.13593559        0.09252718        0.58330810        2.64000000        2.52577735
    10.16331106       24.20367697        0.09446642        0.58257775        2.64000000        2.52187609
    10.28901351       24.27141835        0.09639359        0.58185369        2.64000000        2.51798814
    10.41293435       24.33915973        0.09830964        0.58113547        2.64000000        2.51411331
    10.53517344       24.40690111        0.10021541        0.58042272        2.64000000        2.51025144
    10.65582200       24.47464249        0.10211171        0.57971506        2.64000000        2.50640235
    10.77496364       24.54238387        0.10399924        0.57901216        2.64000000        2.50256587
    10.89267515       24.61012524        0.10587867        0.57831372        2.64000000        2.49874184
    11.00902725       24.67786662        0.10775060        0.57761945        2.64000000        2.49493008
    11.12408529       24.74560800        0.10961559        0.57692910        2.64000000        2.49113045
    11.23790967       24.81334938        0.11147417        0.57624242        2.64000000        2.48734278
    11.35055644       24.88109076        0.11332680        0.57555917        2.64000000        2.48356692
    11.46207766       24.94883214        0.11517393        0.57487917        2.64000000        2.47980271
    11.57252178       25.01657352        0.11701597        0.57420220        2.64000000        2.47605000
    11.68193404       25.08431490        0.11885331        0.57352808        2.64000000        2.47230866
    11.79035663       25.15205627        0.12068630        0.57285664        2.64000000        2.46857853
    11.89782906       25.21979765        0.12251528        0.57218773        2.64000000        2.46485946
    12.00438838       25.28753903        0.12434056        0.57152118        2.64000000        2.46115133
    12.11006931       25.35528041        0.12616242        0.57085685        2.64000000        2.45745399
    12.21490453       25.42302179        0.12798115        0.57019462        2.64000000        2.45376731
    12.31892477       25.49076317        0.12979699        0.56953434        2.64000000        2.45009116
    12.42215901       25.55850455        0.13161019        0.56887592        2.64000000        2.44642539
    12.52463456       25.62624593        0.13342097        0.56821922        2.64000000        2.44276990
    12.62637726       25.69398730        0.13522954        0.56756414        2.64000000        2.43912454
    12.72741153       25.76172868        0.13703611        0.56691058        2.64000000        2.43548920
    12.82776047       25.82947006        0.13884087        0.56625845        2.64000000        2.43186376
    12.92744602       25.89721144        0.14064398        0.56560764        2.64000000        2.42824808
    13.02648895       25.96495282        0.14244562        0.56495808        2.64000000        2.42464206
    13.12490902       26.03269420        0.14424595        0.56430967        2.64000000        2.42104558
    13.22272499       26.10043558        0.14604512        0.56366235        2.64000000        2.41745853
    13.31995473       26.16817696        0.14784327        0.56301603        2.64000000        2.41388079
    13.41661524       26.23591833        0.14964053        0.56237064        2.64000000        2.41031225
    13.51272271       26.30365971        0.15143703        0.56172611        2.64000000        2.40675280
    13.60829264       26.37140109        0.15323290        0.56108237        2.64000000        2.40320234
    13.70333977       26.43914247        0.15502824        0.56043936        2.64000000        2.39966076
    13.79787819       26.50688385        0.15682316        0.55979703        2.64000000        2.39612796
    13.89192140       26.57462523        0.15861778        0.55915530        2.64000000        2.39260384
    13.98548230       26.64236661        0.16041218        0.55851413        2.64000000        2.38908829
    14.07857323       26.71010799        0.16220646        0.55787346        2.64000000        2.38558122
    14.17120602       26.77784936        0.16400071        0.55723324        2.64000000        2.38208253
    14.26339203       26.84559074        0.16579501        0.55659341        2.64000000        2.37859213
    14.35514212       26.91333212        0.16758945        0.55595394        2.64000000        2.37510992
    14.44646676       26.98107350        0.16938409        0.55531477        2.64000000        2.37163581
    14.53737597       27.04881488        0.17117902        0.55467585        2.64000000        2.36816971
    14.62787938       27.11655626        0.17297430        0.55403716        2.64000000        2.36471153
    14.71798629       27.18429764        0.17477000        0.55339863        2.64000000        2.36126119
    14.80770559       27.25203901        0.17656619        0.55276024        2.64000000        2.35781859
    14.89704588       27.31978039        0.17836291        0.55212195        2.64000000        2.35438365
    14.98601544       27.38752177        0.18016023        0.55148371        2.64000000        2.35095628
    15.07462222       27.45526315        0.18195821        0.55084549        2.64000000        2.34753641
    15.16287390       27.52300453        0.18375689        0.55020726        2.64000000        2.34412396
    15.25077791       27.59074591        0.18555633        0.54956898        2.64000000        2.34071884
    15.33834139       27.65848729        0.18735658        0.54893062        2.64000000        2.33732097
    15.42557124       27.72622867        0.18915767        0.54829214        2.64000000        2.33393029
    15.51247412       27.79397004        0.19095965        0.54765351        2.64000000        2.33054670
    15.59905648       27.86171142        0.19276257        0.54701471        2.64000000        2.32717015
    15.68532454       27.92945280        0.19456647        0.54637571        2.64000000        2.32380054
    15.77128433       27.99719418        0.19637137        0.54573647        2.64000000        2.32043782
    15.85694167       28.06493556        0.19817732        0.54509697        2.64000000        2.31708191
    15.94230221       28.13267694        0.19998436        0.54445718        2.64000000        2.31373274
    16.02737138       28.20041832        0.20179251        0.54381707        2.64000000        2.31039024
    16.11215450       28.26815970        0.20360180        0.54317663        2.64000000        2.30705434
    16.19665667       28.33590107        0.20541228        0.54253582        2.64000000        2.30372498
    16.28088286       28.40364245        0.20722396        0.54189461        2.64000000        2.30040209
    16.36483789       28.47138383        0.20903687        0.54125300        2.64000000        2.29708560
    16.44852642       28.53912521        0.21085104        0.54061095        2.64000000        2.29377545
    16.53195297       28.60686659        0.21266649        0.53996844        2.64000000        2.29047158
    16.61512196       28.67460797        0.21448325        0.53932544        2.64000000        2.28717393
    16.69803764       28.74234935        0.21630134        0.53868195        2.64000000        2.28388243
    16.78070417       28.81009073        0.21812078        0.53803793        2.64000000        2.28059702
    16.86312555       28.87783210        0.21994159        0.53739336        2.64000000        2.27731765
    16.94530571       28.94557348        0.22176380        0.53674823        2.64000000        2.27404426
    17.02724845       29.01331486        0.22358742        0.53610252        2.64000000        2.27077679
    17.10895747       29.08105624        0.22541246        0.53545620        2.64000000        2.26751518
    17.19043637       29.14879762        0.22723895        0.53480926        2.64000000        2.26425938
    17.27168862       29.21653900        0.22906690        0.53416169        2.64000000        2.26100933
    17.35271766       29.28428038        0.23089633        0.53351345        2.64000000        2.25776498
    17.43352678       29.35202176        0.23272725        0.53286453        2.64000000        2.25452628
    17.51411920       29.41976313        0.23455967        0.53221493        2.64000000        2.25129317
    17.59449807       29.48750451        0.23639361        0.53156461        2.64000000        2.24806560
    17.67466646       29.55524589        0.23822909        0.53091356        2.64000000        2.24484352
    17.75462733       29.62298727        0.24006610        0.53026178        2.64000000        2.24162689
    17.83438359       29.69072865        0.24190467        0.52960923        2.64000000        2.23841565
    17.91393808       29.75847003        0.24374480        0.52895591        2.64000000        2.23520975
    17.99329354       29.82621141        0.24558650        0.52830180        2.64000000        2.23200915
    18.07245269       29.89395279        0.24742979        0.52764688        2.64000000        2.22881379
    18.15141812       29.96169416        0.24927467        0.52699114        2.64000000        2.22562364
    18.23019241       30.02943554        0.25112115        0.52633457        2.64000000        2.22243865
    18.30877806       30.09717692        0.25296924        0.52567714        2.64000000        2.21925876
    18.38717750       30.16491830        0.25481894        0.52501886        2.64000000        2.21608395
    18.46539312       30.23265968        0.25667026        0.52435969        2.64000000        2.21291416
    18.54342723       30.30040106        0.25852321        0.52369964        2.64000000        2.20974935
    18.62128211       30.36814244        0.26037779        0.52303868        2.64000000        2.20658947
    18.69895997       30.43588382        0.26223401        0.52237680        2.64000000        2.20343450
    18.77646298       30.50362519        0.26409188        0.52171399        2.64000000        2.20028438
    18.85379325       30.57136657        0.26595140        0.52105024        2.64000000        2.19713908
    18.93095285       30.63910795        0.26781256        0.52038553        2.64000000        2.19399855
    19.00794380       30.70684933        0.26967538        0.51971985        2.64000000        2.19086276
    19.08476808       30.77459071        0.27153987        0.51905319        2.64000000        2.18773167
    19.16142761       30.84233209        0.27340601        0.51838553        2.64000000        2.18460523
    19.23792430       30.91007347        0.27527382        0.51771688        2.64000000        2.18148342
    19.31425997       30.97781484        0.27714330        0.51704720        2.64000000        2.17836619
    19.39043644       31.04555622        0.27901445        0.51637649        2.64000000        2.17525351
    19.46645548       31.11329760        0.28088726        0.51570475        2.64000000        2.17214535
    19.54231881       31.18103898        0.28276176        0.51503195        2.64000000        2.16904166
    19.61802813       31.24878036        0.28463792        0.51435809        2.64000000        2.16594241
    19.69358510       31.31652174        0.28651576        0.51368315        2.64000000        2.16284757
    19.76899134       31.38426312        0.28839527        0.51300713        2.64000000        2.15975710
    19.84424842       31.45200450        0.29027646        0.51233002        2.64000000        2.15667098
    19.91935792       31.51974587        0.29215932        0.51165179        2.64000000        2.15358916
    19.99432135       31.58748725        0.29404386        0.51097245        2.64000000        2.15051162
    20.06914021       31.65522863        0.29593008        0.51029198        2.64000000        2.14743832
    20.14381594       31.72297001        0.29781796        0.50961038        2.64000000        2.14436923
    20.21835000       31.79071139        0.29970752        0.50892762        2.64000000        2.14130432
    20.29274377       31.85845277        0.30159875        0.50824371        2.64000000        2.13824356
    20.36699863       31.92619415        0.30349165        0.50755862        2.64000000        2.13518692
    20.44111593       31.99393553        0.30538622        0.50687236        2.64000000        2.13213438
    20.51509700       32.06167690        0.30728245        0.50618491        2.64000000        2.12908589
    20.58894311       32.12941828        0.30918035        0.50549627        2.64000000        2.12604143
    20.66265554       32.19715966        0.31107991        0.50480641        2.64000000        2.12300098
    20.73623554       32.26490104        0.31298113        0.50411534        2.64000000        2.11996450
    20.80968431       32.33264242        0.31488401        0.50342304        2.64000000        2.11693198
    20.88300308       32.40038380        0.31678854        0.50272950        2.64000000        2.11390337
    20.95619299       32.46812518        0.31869472        0.50203472        2.64000000        2.11087865
    21.02925521       32.53586656        0.32060254        0.50133868        2.64000000        2.10785781
    21.10219086       32.60360793        0.32251201        0.50064138        2.64000000        2.10484080
    21.17500106       32.67134931        0.32442313        0.49994280        2.64000000        2.10182761
    21.24768688       32.73909069        0.32633587        0.49924294        2.64000000        2.09881821
    21.32024939       32.80683207        0.32825025        0.49854179        2.64000000        2.09581257
    21.39268964       32.87457345        0.33016626        0.49783935        2.64000000        2.09281068
    21.46500866       32.94231483        0.33208390        0.49713559        2.64000000        2.08981250
    21.53720746       33.01005621        0.33400315        0.49643051        2.64000000        2.08681801
    21.60928702       33.07779759        0.33592402        0.49572411        2.64000000        2.08382719
    21.68124831       33.14553896        0.33784650        0.49501637        2.64000000        2.08084002
    21.75309230       33.21328034        0.33977059        0.49430729        2.64000000        2.07785647
    21.82481991       33.28102172        0.34169627        0.49359685        2.64000000        2.07487652
    21.89643207       33.34876310        0.34362356        0.49288506        2.64000000        2.07190014
    21.96792967       33.41650448        0.34555243        0.49217189        2.64000000        2.06892732
    22.03931360       33.48424586        0.34748289        0.49145735        2.64000000        2.06595804
    22.11058475       33.55198724        0.34941493        0.49074142        2.64000000        2.06299227
    22.18174395       33.61972862        0.35134855        0.49002410        2.64000000        2.06002999
    22.25279206       33.68746999        0.35328374        0.48930538        2.64000000        2.05707118
    22.32372989       33.75521137        0.35522049        0.48858524        2.64000000        2.05411581
    22.39455825       33.82295275        0.35715879        0.48786368        2.64000000        2.05116388
    22.46527795       33.89069413        0.35909865        0.48714070        2.64000000        2.04821536
    22.53588976       33.95843551        0.36104005        0.48641628        2.64000000        2.04527023
    22.60639446       34.02617689        0.36298300        0.48569042        2.64000000        2.04232847
    22.67679280       34.09391827        0.36492747        0.48496311        2.64000000        2.03939007
    22.74708552       34.16165965        0.36687348        0.48423434        2.64000000        2.03645499
    22.81727335       34.22940102        0.36882100        0.48350410        2.64000000        2.03352323
    22.88735701       34.29714240        0.37077004        0.48277238        2.64000000        2.03059476
    22.95733721       34.36488378        0.37272059        0.48203918        2.64000000        2.02766958
    23.02721463       34.43262516        0.37467263        0.48130449        2.64000000        2.02474765
