#  Theta paroi en deg Angle Choc en deg       Kp           Inverse Mach       Mach amont       Mach aval
     0.00000000       22.08241319        0.00000000        0.62406015        2.66000000
     1.72300272       22.08445072        0.00515346        0.62173693        2.66000000        2.65986737
     2.07769066       22.08730158        0.00704940        0.62089026        2.66000000        2.65968182
     2.45977098       22.09259245        0.00933060        0.61987712        2.66000000        2.65933757
     2.87216829       22.10194998        0.01204932        0.61867745        2.66000000        2.65872902
     3.29822807       22.11700085        0.01511856        0.61733306        2.66000000        2.65775103
     3.72813529       22.13937173        0.01846779        0.61587776        2.66000000        2.65629924
     4.15818980       22.17068929        0.02205888        0.61433060        2.66000000        2.65427057
     4.58789742       22.21258018        0.02587741        0.61270001        2.66000000        2.65156368
     5.01824589       22.26667109        0.02992436        0.61098777        2.66000000        2.64807972
     5.45086446       22.33458868        0.03421085        0.60919141        2.66000000        2.64372293
     5.81241260       22.40250627        0.03795719        0.60763543        2.66000000        2.63938561
     6.12785319       22.47042385        0.04134572        0.60623896        2.66000000        2.63506747
     6.41066166       22.53834144        0.04447757        0.60495720        2.66000000        2.63076823
     6.66900861       22.60625903        0.04741537        0.60376242        2.66000000        2.62648761
     6.90825250       22.67417661        0.05020090        0.60263616        2.66000000        2.62222531
     7.13211299       22.74209420        0.05286354        0.60156541        2.66000000        2.61798108
     7.34328600       22.81001179        0.05542487        0.60054063        2.66000000        2.61375465
     7.54379282       22.87792937        0.05790121        0.59955462        2.66000000        2.60954575
     7.73519114       22.94584696        0.06030524        0.59860175        2.66000000        2.60535413
     7.91870869       23.01376455        0.06264705        0.59767756        2.66000000        2.60117955
     8.09533179       23.08168213        0.06493478        0.59677845        2.66000000        2.59702174
     8.26586562       23.14959972        0.06717512        0.59590145        2.66000000        2.59288047
     8.43097676       23.21751731        0.06937363        0.59504409        2.66000000        2.58875550
     8.59122375       23.28543489        0.07153500        0.59420429        2.66000000        2.58464660
     8.74707965       23.35335248        0.07366321        0.59338028        2.66000000        2.58055353
     8.89894885       23.42127007        0.07576168        0.59257053        2.66000000        2.57647608
     9.04718004       23.48918765        0.07783336        0.59177373        2.66000000        2.57241402
     9.19207614       23.55710524        0.07988081        0.59098873        2.66000000        2.56836714
     9.33390207       23.62502283        0.08190630        0.59021451        2.66000000        2.56433522
     9.47289099       23.69294041        0.08391181        0.58945020        2.66000000        2.56031805
     9.60924929       23.76085800        0.08589909        0.58869498        2.66000000        2.55631544
     9.74316052       23.82877559        0.08786973        0.58794816        2.66000000        2.55232716
     9.87478880       23.89669318        0.08982511        0.58720910        2.66000000        2.54835304
    10.00428148       23.96461076        0.09176651        0.58647723        2.66000000        2.54439288
    10.13177136       24.03252835        0.09369505        0.58575203        2.66000000        2.54044648
    10.25737858       24.10044594        0.09561176        0.58503304        2.66000000        2.53651365
    10.38121229       24.16836352        0.09751759        0.58431982        2.66000000        2.53259422
    10.50337184       24.23628111        0.09941336        0.58361199        2.66000000        2.52868800
    10.62394806       24.30419870        0.10129987        0.58290918        2.66000000        2.52479481
    10.74302414       24.37211628        0.10317782        0.58221108        2.66000000        2.52091449
    10.86067654       24.44003387        0.10504787        0.58151736        2.66000000        2.51704685
    10.97697566       24.50795146        0.10691060        0.58082777        2.66000000        2.51319173
    11.09198653       24.57586904        0.10876658        0.58014203        2.66000000        2.50934897
    11.20576928       24.64378663        0.11061631        0.57945991        2.66000000        2.50551840
    11.31837970       24.71170422        0.11246027        0.57878118        2.66000000        2.50169987
    11.42986961       24.77962180        0.11429889        0.57810564        2.66000000        2.49789320
    11.54028725       24.84753939        0.11613258        0.57743309        2.66000000        2.49409827
    11.64967762       24.91545698        0.11796172        0.57676335        2.66000000        2.49031490
    11.75808274       24.98337456        0.11978666        0.57609624        2.66000000        2.48654295
    11.86554194       25.05129215        0.12160773        0.57543161        2.66000000        2.48278228
    11.97209207       25.11920974        0.12342524        0.57476932        2.66000000        2.47903273
    12.07776774       25.18712732        0.12523947        0.57410921        2.66000000        2.47529418
    12.18260143       25.25504491        0.12705069        0.57345115        2.66000000        2.47156648
    12.28662375       25.32296250        0.12885916        0.57279502        2.66000000        2.46784949
    12.38986354       25.39088009        0.13066511        0.57214070        2.66000000        2.46414309
    12.49234801       25.45879767        0.13246876        0.57148807        2.66000000        2.46044713
    12.59410285       25.52671526        0.13427033        0.57083704        2.66000000        2.45676149
    12.69515237       25.59463285        0.13607000        0.57018750        2.66000000        2.45308604
    12.79551957       25.66255043        0.13786798        0.56953934        2.66000000        2.44942066
    12.89522631       25.73046802        0.13966442        0.56889249        2.66000000        2.44576521
    12.99429324       25.79838561        0.14145950        0.56824686        2.66000000        2.44211960
    13.09274004       25.86630319        0.14325338        0.56760235        2.66000000        2.43848368
    13.19058538       25.93422078        0.14504619        0.56695890        2.66000000        2.43485734
    13.28784704       26.00213837        0.14683809        0.56631643        2.66000000        2.43124048
    13.38454195       26.07005595        0.14862920        0.56567487        2.66000000        2.42763297
    13.48068625       26.13797354        0.15041965        0.56503414        2.66000000        2.42403471
    13.57629532       26.20589113        0.15220956        0.56439418        2.66000000        2.42044559
    13.67138387       26.27380871        0.15399904        0.56375493        2.66000000        2.41686549
    13.76596593       26.34172630        0.15578820        0.56311633        2.66000000        2.41329431
    13.86005491       26.40964389        0.15757713        0.56247831        2.66000000        2.40973195
    13.95366367       26.47756147        0.15936594        0.56184083        2.66000000        2.40617831
    14.04680449       26.54547906        0.16115472        0.56120383        2.66000000        2.40263328
    14.13948915       26.61339665        0.16294356        0.56056726        2.66000000        2.39909676
    14.23172896       26.68131423        0.16473253        0.55993107        2.66000000        2.39556866
    14.32353473       26.74923182        0.16652172        0.55929521        2.66000000        2.39204889
    14.41491688       26.81714941        0.16831120        0.55865964        2.66000000        2.38853734
    14.50588538       26.88506699        0.17010105        0.55802430        2.66000000        2.38503393
    14.59644983       26.95298458        0.17189133        0.55738917        2.66000000        2.38153855
    14.68661947       27.02090217        0.17368210        0.55675419        2.66000000        2.37805114
    14.77640318       27.08881976        0.17547344        0.55611933        2.66000000        2.37457158
    14.86580950       27.15673734        0.17726540        0.55548454        2.66000000        2.37109981
    14.95484667       27.22465493        0.17905803        0.55484980        2.66000000        2.36763572
    15.04352261       27.29257252        0.18085138        0.55421506        2.66000000        2.36417925
    15.13184499       27.36049010        0.18264552        0.55358030        2.66000000        2.36073030
    15.21982117       27.42840769        0.18444049        0.55294547        2.66000000        2.35728879
    15.30745826       27.49632528        0.18623633        0.55231054        2.66000000        2.35385465
    15.39476316       27.56424286        0.18803310        0.55167548        2.66000000        2.35042779
    15.48174249       27.63216045        0.18983083        0.55104027        2.66000000        2.34700813
    15.56840266       27.70007804        0.19162956        0.55040487        2.66000000        2.34359561
    15.65474987       27.76799562        0.19342933        0.54976924        2.66000000        2.34019014
    15.74079013       27.83591321        0.19523018        0.54913337        2.66000000        2.33679166
    15.82652923       27.90383080        0.19703215        0.54849723        2.66000000        2.33340008
    15.91197278       27.97174838        0.19883527        0.54786078        2.66000000        2.33001533
    15.99712622       28.03966597        0.20063957        0.54722401        2.66000000        2.32663736
    16.08199482       28.10758356        0.20244508        0.54658689        2.66000000        2.32326607
    16.16658366       28.17550114        0.20425183        0.54594938        2.66000000        2.31990142
    16.25089771       28.24341873        0.20605985        0.54531148        2.66000000        2.31654333
    16.33494174       28.31133632        0.20786916        0.54467315        2.66000000        2.31319173
    16.41872041       28.37925390        0.20967980        0.54403437        2.66000000        2.30984656
    16.50223822       28.44717149        0.21149178        0.54339513        2.66000000        2.30650775
    16.58549957       28.51508908        0.21330513        0.54275539        2.66000000        2.30317525
    16.66850869       28.58300666        0.21511987        0.54211514        2.66000000        2.29984898
    16.75126971       28.65092425        0.21693603        0.54147435        2.66000000        2.29652889
    16.83378663       28.71884184        0.21875361        0.54083301        2.66000000        2.29321492
    16.91606337       28.78675943        0.22057265        0.54019110        2.66000000        2.28990701
    16.99810370       28.85467701        0.22239315        0.53954859        2.66000000        2.28660510
    17.07991131       28.92259460        0.22421515        0.53890547        2.66000000        2.28330913
    17.16148976       28.99051219        0.22603864        0.53826172        2.66000000        2.28001904
    17.24284257       29.05842977        0.22786366        0.53761731        2.66000000        2.27673479
    17.32397309       29.12634736        0.22969021        0.53697225        2.66000000        2.27345631
    17.40488465       29.19426495        0.23151830        0.53632649        2.66000000        2.27018355
    17.48558044       29.26218253        0.23334796        0.53568004        2.66000000        2.26691646
    17.56606359       29.33010012        0.23517919        0.53503286        2.66000000        2.26365498
    17.64633716       29.39801771        0.23701201        0.53438495        2.66000000        2.26039906
    17.72640411       29.46593529        0.23884642        0.53373629        2.66000000        2.25714866
    17.80626733       29.53385288        0.24068244        0.53308686        2.66000000        2.25390372
    17.88592963       29.60177047        0.24252008        0.53243665        2.66000000        2.25066419
    17.96539379       29.66968805        0.24435935        0.53178564        2.66000000        2.24743003
    18.04466245       29.73760564        0.24620025        0.53113382        2.66000000        2.24420118
    18.12373826       29.80552323        0.24804279        0.53048117        2.66000000        2.24097760
    18.20262375       29.87344081        0.24988699        0.52982768        2.66000000        2.23775924
    18.28132140       29.94135840        0.25173285        0.52917333        2.66000000        2.23454606
    18.35983367       30.00927599        0.25358038        0.52851811        2.66000000        2.23133802
    18.43816290       30.07719357        0.25542957        0.52786201        2.66000000        2.22813506
    18.51631142       30.14511116        0.25728045        0.52720501        2.66000000        2.22493714
    18.59428148       30.21302875        0.25913301        0.52654710        2.66000000        2.22174423
    18.67207530       30.28094634        0.26098726        0.52588826        2.66000000        2.21855627
    18.74969504       30.34886392        0.26284321        0.52522849        2.66000000        2.21537323
    18.82714279       30.41678151        0.26470085        0.52456776        2.66000000        2.21219506
    18.90442062       30.48469910        0.26656020        0.52390608        2.66000000        2.20902174
    18.98153053       30.55261668        0.26842125        0.52324341        2.66000000        2.20585320
    19.05847451       30.62053427        0.27028401        0.52257976        2.66000000        2.20268942
    19.13525447       30.68845186        0.27214848        0.52191512        2.66000000        2.19953036
    19.21187230       30.75636944        0.27401466        0.52124946        2.66000000        2.19637598
    19.28832982       30.82428703        0.27588256        0.52058277        2.66000000        2.19322624
    19.36462886       30.89220462        0.27775218        0.51991506        2.66000000        2.19008110
    19.44077115       30.96012220        0.27962352        0.51924629        2.66000000        2.18694053
    19.51675843       31.02803979        0.28149657        0.51857647        2.66000000        2.18380450
    19.59259239       31.09595738        0.28337135        0.51790559        2.66000000        2.18067296
    19.66827468       31.16387496        0.28524785        0.51723362        2.66000000        2.17754588
    19.74380690       31.23179255        0.28712607        0.51656056        2.66000000        2.17442322
    19.81919065       31.29971014        0.28900601        0.51588640        2.66000000        2.17130497
    19.89442747       31.36762772        0.29088768        0.51521113        2.66000000        2.16819107
    19.96951887       31.43554531        0.29277106        0.51453474        2.66000000        2.16508149
    20.04446636       31.50346290        0.29465617        0.51385721        2.66000000        2.16197622
    20.11927137       31.57138048        0.29654299        0.51317854        2.66000000        2.15887520
    20.19393535       31.63929807        0.29843153        0.51249872        2.66000000        2.15577842
    20.26845967       31.70721566        0.30032179        0.51181774        2.66000000        2.15268584
    20.34284572       31.77513324        0.30221376        0.51113558        2.66000000        2.14959742
    20.41709483       31.84305083        0.30410745        0.51045224        2.66000000        2.14651315
    20.49120833       31.91096842        0.30600285        0.50976771        2.66000000        2.14343298
    20.56518749       31.97888601        0.30789995        0.50908197        2.66000000        2.14035690
    20.63903359       32.04680359        0.30979876        0.50839503        2.66000000        2.13728487
    20.71274786       32.11472118        0.31169927        0.50770686        2.66000000        2.13421686
    20.78633153       32.18263877        0.31360149        0.50701746        2.66000000        2.13115284
    20.85978577       32.25055635        0.31550540        0.50632682        2.66000000        2.12809280
    20.93311177       32.31847394        0.31741100        0.50563493        2.66000000        2.12503669
    21.00631066       32.38639153        0.31931830        0.50494179        2.66000000        2.12198450
    21.07938357       32.45430911        0.32122728        0.50424737        2.66000000        2.11893620
    21.15233161       32.52222670        0.32313795        0.50355168        2.66000000        2.11589175
    21.22515586       32.59014429        0.32505029        0.50285470        2.66000000        2.11285114
    21.29785738       32.65806187        0.32696431        0.50215643        2.66000000        2.10981435
    21.37043722       32.72597946        0.32888000        0.50145686        2.66000000        2.10678134
    21.44289639       32.79389705        0.33079736        0.50075597        2.66000000        2.10375208
    21.51523592       32.86181463        0.33271637        0.50005376        2.66000000        2.10072657
    21.58745677       32.92973222        0.33463705        0.49935022        2.66000000        2.09770477
    21.65955991       32.99764981        0.33655938        0.49864534        2.66000000        2.09468666
    21.73154630       33.06556739        0.33848335        0.49793912        2.66000000        2.09167221
    21.80341688       33.13348498        0.34040897        0.49723154        2.66000000        2.08866140
    21.87517256       33.20140257        0.34233623        0.49652260        2.66000000        2.08565422
    21.94681423       33.26932015        0.34426511        0.49581229        2.66000000        2.08265064
    22.01834278       33.33723774        0.34619563        0.49510059        2.66000000        2.07965063
    22.08975909       33.40515533        0.34812776        0.49438751        2.66000000        2.07665418
    22.16106399       33.47307291        0.35006151        0.49367303        2.66000000        2.07366126
    22.23225834       33.54099050        0.35199687        0.49295715        2.66000000        2.07067185
    22.30334295       33.60890809        0.35393384        0.49223985        2.66000000        2.06768593
    22.37431863       33.67682568        0.35587240        0.49152113        2.66000000        2.06470349
    22.44518618       33.74474326        0.35781255        0.49080098        2.66000000        2.06172449
    22.51594636       33.81266085        0.35975429        0.49007939        2.66000000        2.05874893
    22.58659996       33.88057844        0.36169760        0.48935636        2.66000000        2.05577678
    22.65714773       33.94849602        0.36364249        0.48863187        2.66000000        2.05280803
    22.72759040       34.01641361        0.36558894        0.48790593        2.66000000        2.04984264
    22.79792870       34.08433120        0.36753696        0.48717851        2.66000000        2.04688061
    22.86816335       34.15224878        0.36948652        0.48644961        2.66000000        2.04392192
    22.93829505       34.22016637        0.37143764        0.48571924        2.66000000        2.04096655
    23.00832449       34.28808396        0.37339029        0.48498736        2.66000000        2.03801447
