#  Theta paroi en deg Angle Choc en deg       Kp           Inverse Mach       Mach amont       Mach aval
     0.00000000       59.54968598        0.00000000        0.13793103        1.16000000
     2.06717887       59.55059949        0.01052922        0.13215000        1.16000000        1.15998291
     2.28869987       59.55187765        0.01259590        0.13101027        1.16000000        1.15995900
     2.58468392       59.55424977        0.01559068        0.12935575        1.16000000        1.15991462
     2.94471405       59.55844514        0.01957836        0.12714718        1.16000000        1.15983615
     3.34069687       59.56519308        0.02438181        0.12447841        1.16000000        1.15970995
     3.75236317       59.57522289        0.02981876        0.12144645        1.16000000        1.15952243
     4.16871086       59.58926387        0.03575834        0.11812041        1.16000000        1.15926002
     4.58436419       59.60804532        0.04211404        0.11454518        1.16000000        1.15890922
     4.99687705       59.63229655        0.04882911        0.11074933        1.16000000        1.15845659
     5.40527101       59.66274687        0.05586592        0.10675094        1.16000000        1.15788878
     5.74037403       59.69319718        0.06192240        0.10329235        1.16000000        1.15732156
     6.02744472       59.72364749        0.06730986        0.10020222        1.16000000        1.15675493
     6.28027051       59.75409781        0.07220492        0.09738328        1.16000000        1.15618889
     6.50727804       59.78454812        0.07671890        0.09477419        1.16000000        1.15562344
     6.71402781       59.81499844        0.08092719        0.09233340        1.16000000        1.15505857
     6.90439900       59.84544875        0.08488352        0.09003128        1.16000000        1.15449430
     7.08121480       59.87589906        0.08862779        0.08784584        1.16000000        1.15393060
     7.24659954       59.90634938        0.09219051        0.08576024        1.16000000        1.15336750
     7.40219538       59.93679969        0.09559565        0.08376126        1.16000000        1.15280498
     7.54930026       59.96725001        0.09886240        0.08183830        1.16000000        1.15224304
     7.68895950       59.99770032        0.10200643        0.07998271        1.16000000        1.15168169
     7.82202833       60.02815064        0.10504071        0.07818735        1.16000000        1.15112092
     7.94921631       60.05860095        0.10797610        0.07644621        1.16000000        1.15056074
     8.07111907       60.08905126        0.11082183        0.07475419        1.16000000        1.15000114
     8.18824205       60.11950158        0.11358580        0.07310694        1.16000000        1.14944212
     8.30101803       60.14995189        0.11627482        0.07150068        1.16000000        1.14888368
     8.40982077       60.18040221        0.11889486        0.06993214        1.16000000        1.14832583
     8.51497542       60.21085252        0.12145110        0.06839844        1.16000000        1.14776856
     8.61676681       60.24130283        0.12394816        0.06689703        1.16000000        1.14721187
     8.71544593       60.27175315        0.12639010        0.06542566        1.16000000        1.14665575
     8.81123522       60.30220346        0.12878059        0.06398232        1.16000000        1.14610022
     8.90433286       60.33265378        0.13112286        0.06256522        1.16000000        1.14554527
     8.99491613       60.36310409        0.13341988        0.06117272        1.16000000        1.14499090
     9.08314445       60.39355440        0.13567428        0.05980335        1.16000000        1.14443710
     9.16916163       60.42400472        0.13788849        0.05845579        1.16000000        1.14388389
     9.25309797       60.45445503        0.14006470        0.05712882        1.16000000        1.14333125
     9.33507188       60.48490535        0.14220492        0.05582133        1.16000000        1.14277919
     9.41519135       60.51535566        0.14431098        0.05453231        1.16000000        1.14222770
     9.49355513       60.54580597        0.14638458        0.05326083        1.16000000        1.14167680
     9.57025378       60.57625629        0.14842727        0.05200602        1.16000000        1.14112646
     9.64537065       60.60670660        0.15044048        0.05076709        1.16000000        1.14057671
     9.71898247       60.63715692        0.15242556        0.04954330        1.16000000        1.14002753
     9.79116025       60.66760723        0.15438373        0.04833398        1.16000000        1.13947892
     9.86196967       60.69805754        0.15631615        0.04713848        1.16000000        1.13893089
     9.93147174       60.72850786        0.15822389        0.04595623        1.16000000        1.13838343
     9.99972317       60.75895817        0.16010793        0.04478665        1.16000000        1.13783655
    10.06677680       60.78940849        0.16196923        0.04362925        1.16000000        1.13729024
    10.13268193       60.81985880        0.16380865        0.04248353        1.16000000        1.13674450
    10.19748468       60.85030911        0.16562701        0.04134904        1.16000000        1.13619933
    10.26122821       60.88075943        0.16742509        0.04022537        1.16000000        1.13565474
    10.32395300       60.91120974        0.16920360        0.03911210        1.16000000        1.13511071
    10.38569707       60.94166006        0.17096324        0.03800886        1.16000000        1.13456726
    10.44649622       60.97211037        0.17270465        0.03691529        1.16000000        1.13402438
    10.50638409       61.00256068        0.17442844        0.03583106        1.16000000        1.13348207
    10.56539247       61.03301100        0.17613518        0.03475585        1.16000000        1.13294033
    10.62355133       61.06346131        0.17782542        0.03368936        1.16000000        1.13239916
    10.68088903       61.09391163        0.17949968        0.03263131        1.16000000        1.13185856
    10.73743239       61.12436194        0.18115844        0.03158141        1.16000000        1.13131853
    10.79320685       61.15481225        0.18280218        0.03053943        1.16000000        1.13077906
    10.84823646       61.18526257        0.18443133        0.02950510        1.16000000        1.13024017
    10.90254416       61.21571288        0.18604632        0.02847821        1.16000000        1.12970184
    10.95615165       61.24616320        0.18764755        0.02745852        1.16000000        1.12916408
    11.00907964       61.27661351        0.18923541        0.02644583        1.16000000        1.12862688
    11.06134778       61.30706382        0.19081025        0.02543993        1.16000000        1.12809025
    11.11297486       61.33751414        0.19237242        0.02444064        1.16000000        1.12755419
    11.16397873       61.36796445        0.19392227        0.02344777        1.16000000        1.12701870
    11.21437650       61.39841477        0.19546011        0.02246114        1.16000000        1.12648377
    11.26418446       61.42886508        0.19698624        0.02148059        1.16000000        1.12594940
    11.31341818       61.45931539        0.19850096        0.02050595        1.16000000        1.12541560
    11.36209258       61.48976571        0.20000454        0.01953707        1.16000000        1.12488237
    11.41022191       61.52021602        0.20149726        0.01857381        1.16000000        1.12434970
    11.45781985       61.55066634        0.20297937        0.01761602        1.16000000        1.12381759
    11.50489950       61.58111665        0.20445113        0.01666356        1.16000000        1.12328604
    11.55147341       61.61156696        0.20591276        0.01571630        1.16000000        1.12275506
    11.59755365       61.64201728        0.20736451        0.01477413        1.16000000        1.12222465
    11.64315179       61.67246759        0.20880658        0.01383691        1.16000000        1.12169479
    11.68827895       61.70291791        0.21023919        0.01290453        1.16000000        1.12116550
    11.73294582       61.73336822        0.21166255        0.01197688        1.16000000        1.12063676
    11.77716270       61.76381853        0.21307684        0.01105385        1.16000000        1.12010859
    11.82093949       61.79426885        0.21448227        0.01013533        1.16000000        1.11958098
    11.86428571       61.82471916        0.21587901        0.00922124        1.16000000        1.11905393
    11.90721054       61.85516948        0.21726724        0.00831146        1.16000000        1.11852745
    11.94972286       61.88561979        0.21864713        0.00740591        1.16000000        1.11800152
    11.99183119       61.91607010        0.22001884        0.00650449        1.16000000        1.11747615
    12.03354375       61.94652042        0.22138254        0.00560712        1.16000000        1.11695134
    12.07486852       61.97697073        0.22273837        0.00471372        1.16000000        1.11642709
    12.11581317       62.00742105        0.22408649        0.00382420        1.16000000        1.11590340
    12.15638511       62.03787136        0.22542704        0.00293848        1.16000000        1.11538027
    12.19659150       62.06832167        0.22676016        0.00205649        1.16000000        1.11485769
    12.23643929       62.09877199        0.22808598        0.00117816        1.16000000        1.11433568
    12.27593517       62.12922230        0.22940463        0.00030341        1.16000000        1.11381422
    12.31508564       62.15967262        0.23071624       -0.00056783        1.16000000        1.11329332
    12.35389696       62.19012293        0.23202093       -0.00143562        1.16000000        1.11277297
    12.39237523       62.22057324        0.23331883       -0.00230002        1.16000000        1.11225318
    12.43052634       62.25102356        0.23461004       -0.00316111        1.16000000        1.11173395
    12.46835599       62.28147387        0.23589468       -0.00401894        1.16000000        1.11121528
    12.50586973       62.31192419        0.23717285       -0.00487357        1.16000000        1.11069716
    12.54307291       62.34237450        0.23844466       -0.00572505        1.16000000        1.11017959
    12.57997075       62.37282481        0.23971022       -0.00657346        1.16000000        1.10966258
    12.61656829       62.40327513        0.24096963       -0.00741882        1.16000000        1.10914613
    12.65287045       62.43372544        0.24222297       -0.00826121        1.16000000        1.10863023
    12.68888198       62.46417576        0.24347034       -0.00910068        1.16000000        1.10811489
    12.72460750       62.49462607        0.24471184       -0.00993726        1.16000000        1.10760010
    12.76005152       62.52507638        0.24594755       -0.01077101        1.16000000        1.10708586
    12.79521841       62.55552670        0.24717757       -0.01160198        1.16000000        1.10657218
    12.83011240       62.58597701        0.24840196       -0.01243021        1.16000000        1.10605905
    12.86473763       62.61642733        0.24962083       -0.01325575        1.16000000        1.10554647
    12.89909811       62.64687764        0.25083423       -0.01407864        1.16000000        1.10503444
    12.93319774       62.67732795        0.25204226       -0.01489892        1.16000000        1.10452297
    12.96704035       62.70777827        0.25324499       -0.01571663        1.16000000        1.10401205
    13.00062961       62.73822858        0.25444249       -0.01653181        1.16000000        1.10350169
    13.03396914       62.76867890        0.25563483       -0.01734451        1.16000000        1.10299187
    13.06706244       62.79912921        0.25682209       -0.01815475        1.16000000        1.10248261
    13.09991295       62.82957953        0.25800432       -0.01896259        1.16000000        1.10197389
    13.13252399       62.86002984        0.25918161       -0.01976804        1.16000000        1.10146573
    13.16489880       62.89048015        0.26035401       -0.02057115        1.16000000        1.10095812
    13.19704054       62.92093047        0.26152158       -0.02137195        1.16000000        1.10045106
    13.22895233       62.95138078        0.26268439       -0.02217047        1.16000000        1.09994454
    13.26063714       62.98183110        0.26384250       -0.02296675        1.16000000        1.09943858
    13.29209793       63.01228141        0.26499597       -0.02376082        1.16000000        1.09893317
    13.32333757       63.04273172        0.26614485       -0.02455271        1.16000000        1.09842831
    13.35435884       63.07318204        0.26728920       -0.02534245        1.16000000        1.09792400
    13.38516447       63.10363235        0.26842907       -0.02613006        1.16000000        1.09742023
    13.41575714       63.13408267        0.26956453       -0.02691559        1.16000000        1.09691701
    13.44613943       63.16453298        0.27069561       -0.02769905        1.16000000        1.09641435
    13.47631390       63.19498329        0.27182238       -0.02848047        1.16000000        1.09591223
    13.50628302       63.22543361        0.27294488       -0.02925988        1.16000000        1.09541066
    13.53604922       63.25588392        0.27406315       -0.03003730        1.16000000        1.09490963
    13.56561487       63.28633424        0.27517726       -0.03081277        1.16000000        1.09440916
    13.59498228       63.31678455        0.27628724       -0.03158630        1.16000000        1.09390923
    13.62415372       63.34723486        0.27739314       -0.03235792        1.16000000        1.09340985
    13.65313142       63.37768518        0.27849501       -0.03312766        1.16000000        1.09291101
    13.68191751       63.40813549        0.27959288       -0.03389553        1.16000000        1.09241273
    13.71051413       63.43858581        0.28068681       -0.03466156        1.16000000        1.09191498
    13.73892335       63.46903612        0.28177683       -0.03542578        1.16000000        1.09141779
    13.76714720       63.49948643        0.28286299       -0.03618820        1.16000000        1.09092114
    13.79518765       63.52993675        0.28394532       -0.03694884        1.16000000        1.09042504
    13.82304664       63.56038706        0.28502386       -0.03770773        1.16000000        1.08992948
    13.85072608       63.59083738        0.28609866       -0.03846488        1.16000000        1.08943446
    13.87822783       63.62128769        0.28716974       -0.03922033        1.16000000        1.08894000
    13.90555371       63.65173800        0.28823716       -0.03997407        1.16000000        1.08844607
    13.93270550       63.68218832        0.28930093       -0.04072614        1.16000000        1.08795270
    13.95968493       63.71263863        0.29036111       -0.04147656        1.16000000        1.08745986
    13.98649374       63.74308895        0.29141772       -0.04222533        1.16000000        1.08696757
    14.01313360       63.77353926        0.29247079       -0.04297248        1.16000000        1.08647583
    14.03960613       63.80398957        0.29352037       -0.04371803        1.16000000        1.08598463
    14.06591296       63.83443989        0.29456648       -0.04446200        1.16000000        1.08549397
    14.09205566       63.86489020        0.29560915       -0.04520439        1.16000000        1.08500386
    14.11803578       63.89534052        0.29664842       -0.04594523        1.16000000        1.08451429
    14.14385483       63.92579083        0.29768432       -0.04668453        1.16000000        1.08402526
    14.16951430       63.95624114        0.29871688       -0.04742231        1.16000000        1.08353677
    14.19501565       63.98669146        0.29974612       -0.04815859        1.16000000        1.08304883
    14.22036030       64.01714177        0.30077208       -0.04889337        1.16000000        1.08256143
    14.24554965       64.04759209        0.30179479       -0.04962668        1.16000000        1.08207458
    14.27058510       64.07804240        0.30281427       -0.05035852        1.16000000        1.08158826
    14.29546796       64.10849271        0.30383055       -0.05108892        1.16000000        1.08110249
    14.32019959       64.13894303        0.30484366       -0.05181788        1.16000000        1.08061726
    14.34478126       64.16939334        0.30585362       -0.05254543        1.16000000        1.08013257
    14.36921427       64.19984366        0.30686046       -0.05327156        1.16000000        1.07964842
    14.39349984       64.23029397        0.30786421       -0.05399630        1.16000000        1.07916481
    14.41763922       64.26074428        0.30886489       -0.05471966        1.16000000        1.07868175
    14.44163363       64.29119460        0.30986252       -0.05544165        1.16000000        1.07819923
    14.46548421       64.32164491        0.31085713       -0.05616229        1.16000000        1.07771724
    14.48919216       64.35209523        0.31184875       -0.05688158        1.16000000        1.07723580
    14.51275861       64.38254554        0.31283739       -0.05759954        1.16000000        1.07675490
    14.53618467       64.41299585        0.31382308       -0.05831617        1.16000000        1.07627454
    14.55947145       64.44344617        0.31480585       -0.05903150        1.16000000        1.07579471
    14.58262005       64.47389648        0.31578570       -0.05974553        1.16000000        1.07531543
    14.60563150       64.50434680        0.31676268       -0.06045827        1.16000000        1.07483669
    14.62850686       64.53479711        0.31773679       -0.06116973        1.16000000        1.07435849
    14.65124715       64.56524742        0.31870806       -0.06187993        1.16000000        1.07388083
    14.67385339       64.59569774        0.31967650       -0.06258887        1.16000000        1.07340370
    14.69632656       64.62614805        0.32064215       -0.06329656        1.16000000        1.07292712
    14.71866763       64.65659837        0.32160501       -0.06400302        1.16000000        1.07245107
    14.74087757       64.68704868        0.32256512       -0.06470825        1.16000000        1.07197557
    14.76295732       64.71749899        0.32352248       -0.06541227        1.16000000        1.07150060
    14.78490779       64.74794931        0.32447711       -0.06611507        1.16000000        1.07102617
    14.80672991       64.77839962        0.32542904       -0.06681668        1.16000000        1.07055228
    14.82842456       64.80884994        0.32637829       -0.06751710        1.16000000        1.07007893
    14.84999261       64.83930025        0.32732486       -0.06821633        1.16000000        1.06960612
    14.87143495       64.86975056        0.32826879       -0.06891440        1.16000000        1.06913384
    14.89275242       64.90020088        0.32921008       -0.06961130        1.16000000        1.06866211
    14.91394585       64.93065119        0.33014875       -0.07030704        1.16000000        1.06819091
    14.93501606       64.96110151        0.33108483       -0.07100164        1.16000000        1.06772024
    14.95596389       64.99155182        0.33201832       -0.07169509        1.16000000        1.06725012
    14.97679010       65.02200213        0.33294924       -0.07238742        1.16000000        1.06678053
