#  Theta paroi en deg Angle Choc en deg       Kp           Inverse Mach       Mach amont       Mach aval
     0.00000000       31.57136774        0.00000000        0.47643979        1.91000000
     2.03866866       31.57312060        0.00779508        0.47291964        1.91000000        1.90992487
     2.43921786       31.57557316        0.01055689        0.47167680        1.91000000        1.90981975
     2.87908614       31.58012482        0.01394330        0.47015590        1.91000000        1.90962470
     3.35794824       31.58817499        0.01801877        0.46832981        1.91000000        1.90927982
     3.85413153       31.60112306        0.02263944        0.46626495        1.91000000        1.90872537
     4.35446978       31.62036844        0.02768301        0.46401758        1.91000000        1.90790186
     4.85336279       31.64731053        0.03307505        0.46162214        1.91000000        1.90675021
     5.34923292       31.68334874        0.03877656        0.45909701        1.91000000        1.90521190
     5.84240404       31.72988245        0.04477147        0.45645021        1.91000000        1.90322923
     6.33405475       31.78831109        0.05105854        0.45368313        1.91000000        1.90074554
     6.74140123       31.84673972        0.05649564        0.45129701        1.91000000        1.89826824
     7.09398816       31.90516835        0.06136488        0.44916528        1.91000000        1.89579727
     7.40778582       31.96359698        0.06582342        0.44721746        1.91000000        1.89333257
     7.69248685       32.02202562        0.06996894        0.44540977        1.91000000        1.89087409
     7.95445259       32.08045425        0.07386682        0.44371294        1.91000000        1.88842178
     8.19810159       32.13888288        0.07756319        0.44210631        1.91000000        1.88597559
     8.42663781       32.19731151        0.08109198        0.44057467        1.91000000        1.88353546
     8.64246456       32.25574014        0.08447894        0.43910652        1.91000000        1.88110133
     8.84743455       32.31416878        0.08774414        0.43769284        1.91000000        1.87867317
     9.04300861       32.37259741        0.09090357        0.43632650        1.91000000        1.87625092
     9.23036062       32.43102604        0.09397018        0.43500170        1.91000000        1.87383452
     9.41044916       32.48945467        0.09695460        0.43371367        1.91000000        1.87142393
     9.58406806       32.54788331        0.09986575        0.43245842        1.91000000        1.86901911
     9.75188260       32.60631194        0.10271110        0.43123260        1.91000000        1.86661999
     9.91445638       32.66474057        0.10549704        0.43003334        1.91000000        1.86422654
    10.07227133       32.72316920        0.10822907        0.42885819        1.91000000        1.86183870
    10.22574310       32.78159784        0.11091194        0.42770501        1.91000000        1.85945643
    10.37523279       32.84002647        0.11354980        0.42657194        1.91000000        1.85707969
    10.52105633       32.89845510        0.11614630        0.42545734        1.91000000        1.85470842
    10.66349181       32.95688373        0.11870466        0.42435975        1.91000000        1.85234259
    10.80278542       33.01531236        0.12122775        0.42327790        1.91000000        1.84998214
    10.93915621       33.07374100        0.12371812        0.42221062        1.91000000        1.84762704
    11.07280002       33.13216963        0.12617807        0.42115690        1.91000000        1.84527723
    11.20389270       33.19059826        0.12860965        0.42011579        1.91000000        1.84293269
    11.33259281       33.24902689        0.13101474        0.41908646        1.91000000        1.84059335
    11.45904381       33.30745553        0.13339502        0.41806814        1.91000000        1.83825919
    11.58337600       33.36588416        0.13575204        0.41706014        1.91000000        1.83593016
    11.70570808       33.42431279        0.13808719        0.41606181        1.91000000        1.83360621
    11.82614854       33.48274142        0.14040177        0.41507258        1.91000000        1.83128731
    11.94479677       33.54117005        0.14269695        0.41409190        1.91000000        1.82897342
    12.06174412       33.59959869        0.14497383        0.41311928        1.91000000        1.82666450
    12.17707475       33.65802732        0.14723341        0.41215427        1.91000000        1.82436050
    12.29086635       33.71645595        0.14947660        0.41119644        1.91000000        1.82206139
    12.40319081       33.77488458        0.15170428        0.41024540        1.91000000        1.81976713
    12.51411482       33.83331322        0.15391723        0.40930079        1.91000000        1.81747768
    12.62370034       33.89174185        0.15611620        0.40836226        1.91000000        1.81519300
    12.73200506       33.95017048        0.15830187        0.40742949        1.91000000        1.81291306
    12.83908277       34.00859911        0.16047490        0.40650220        1.91000000        1.81063782
    12.94498372       34.06702774        0.16263588        0.40558010        1.91000000        1.80836724
    13.04975497       34.12545638        0.16478537        0.40466293        1.91000000        1.80610128
    13.15344058       34.18388501        0.16692391        0.40375044        1.91000000        1.80383992
    13.25608192       34.24231364        0.16905199        0.40284242        1.91000000        1.80158311
    13.35771788       34.30074227        0.17117007        0.40193862        1.91000000        1.79933081
    13.45838508       34.35917091        0.17327859        0.40103887        1.91000000        1.79708301
    13.55811799       34.41759954        0.17537797        0.40014295        1.91000000        1.79483965
    13.65694916       34.47602817        0.17746860        0.39925069        1.91000000        1.79260071
    13.75490935       34.53445680        0.17955083        0.39836190        1.91000000        1.79036615
    13.85202761       34.59288544        0.18162503        0.39747644        1.91000000        1.78813594
    13.94833149       34.65131407        0.18369152        0.39659414        1.91000000        1.78591005
    14.04384708       34.70974270        0.18575060        0.39571485        1.91000000        1.78368844
    14.13859915       34.76817133        0.18780258        0.39483844        1.91000000        1.78147109
    14.23261117       34.82659996        0.18984774        0.39396476        1.91000000        1.77925795
    14.32590553       34.88502860        0.19188633        0.39309369        1.91000000        1.77704900
    14.41850347       34.94345723        0.19391862        0.39222511        1.91000000        1.77484421
    14.51042524       35.00188586        0.19594485        0.39135890        1.91000000        1.77264355
    14.60169013       35.06031449        0.19796524        0.39049495        1.91000000        1.77044698
    14.69231655       35.11874313        0.19998000        0.38963316        1.91000000        1.76825447
    14.78232206       35.17717176        0.20198936        0.38877341        1.91000000        1.76606601
    14.87172345       35.23560039        0.20399350        0.38791562        1.91000000        1.76388154
    14.96053676       35.29402902        0.20599262        0.38705969        1.91000000        1.76170106
    15.04877733       35.35245765        0.20798689        0.38620552        1.91000000        1.75952452
    15.13645986       35.41088629        0.20997649        0.38535304        1.91000000        1.75735191
    15.22359842       35.46931492        0.21196158        0.38450216        1.91000000        1.75518318
    15.31020651       35.52774355        0.21394233        0.38365280        1.91000000        1.75301832
    15.39629705       35.58617218        0.21591887        0.38280489        1.91000000        1.75085729
    15.48188248       35.64460082        0.21789136        0.38195834        1.91000000        1.74870007
    15.56697471       35.70302945        0.21985994        0.38111310        1.91000000        1.74654663
    15.65158521       35.76145808        0.22182473        0.38026908        1.91000000        1.74439695
    15.73572499       35.81988671        0.22378586        0.37942623        1.91000000        1.74225099
    15.81940464       35.87831534        0.22574346        0.37858449        1.91000000        1.74010873
    15.90263438       35.93674398        0.22769765        0.37774378        1.91000000        1.73797015
    15.98542401       35.99517261        0.22964853        0.37690405        1.91000000        1.73583522
    16.06778299       36.05360124        0.23159622        0.37606525        1.91000000        1.73370391
    16.14972045       36.11202987        0.23354081        0.37522731        1.91000000        1.73157620
    16.23124518       36.17045851        0.23548241        0.37439018        1.91000000        1.72945206
    16.31236565       36.22888714        0.23742111        0.37355382        1.91000000        1.72733147
    16.39309005       36.28731577        0.23935701        0.37271817        1.91000000        1.72521440
    16.47342629       36.34574440        0.24129020        0.37188318        1.91000000        1.72310084
    16.55338200       36.40417304        0.24322075        0.37104880        1.91000000        1.72099075
    16.63296457       36.46260167        0.24514876        0.37021500        1.91000000        1.71888411
    16.71218111       36.52103030        0.24707430        0.36938172        1.91000000        1.71678090
    16.79103855       36.57945893        0.24899745        0.36854892        1.91000000        1.71468110
    16.86954353       36.63788756        0.25091828        0.36771656        1.91000000        1.71258468
    16.94770254       36.69631620        0.25283687        0.36688459        1.91000000        1.71049162
    17.02552182       36.75474483        0.25475327        0.36605299        1.91000000        1.70840189
    17.10300743       36.81317346        0.25666757        0.36522171        1.91000000        1.70631549
    17.18016524       36.87160209        0.25857981        0.36439071        1.91000000        1.70423237
    17.25700093       36.93003073        0.26049007        0.36355995        1.91000000        1.70215253
    17.33352003       36.98845936        0.26239840        0.36272941        1.91000000        1.70007593
    17.40972789       37.04688799        0.26430487        0.36189904        1.91000000        1.69800256
    17.48562969       37.10531662        0.26620951        0.36106881        1.91000000        1.69593240
    17.56123047       37.16374525        0.26811240        0.36023869        1.91000000        1.69386543
    17.63653511       37.22217389        0.27001357        0.35940865        1.91000000        1.69180162
    17.71154837       37.28060252        0.27191309        0.35857866        1.91000000        1.68974095
    17.78627486       37.33903115        0.27381099        0.35774868        1.91000000        1.68768341
    17.86071905       37.39745978        0.27570733        0.35691868        1.91000000        1.68562898
    17.93488530       37.45588842        0.27760215        0.35608864        1.91000000        1.68357762
    18.00877785       37.51431705        0.27949550        0.35525853        1.91000000        1.68152934
    18.08240080       37.57274568        0.28138740        0.35442832        1.91000000        1.67948409
    18.15575817       37.63117431        0.28327792        0.35359799        1.91000000        1.67744188
    18.22885384       37.68960295        0.28516708        0.35276749        1.91000000        1.67540267
    18.30169160       37.74803158        0.28705492        0.35193682        1.91000000        1.67336644
    18.37427514       37.80646021        0.28894148        0.35110595        1.91000000        1.67133319
    18.44660806       37.86488884        0.29082680        0.35027484        1.91000000        1.66930289
    18.51869385       37.92331747        0.29271091        0.34944348        1.91000000        1.66727551
    18.59053592       37.98174611        0.29459385        0.34861184        1.91000000        1.66525106
    18.66213758       38.04017474        0.29647564        0.34777990        1.91000000        1.66322949
    18.73350207       38.09860337        0.29835631        0.34694764        1.91000000        1.66121081
    18.80463254       38.15703200        0.30023591        0.34611502        1.91000000        1.65919499
    18.87553205       38.21546064        0.30211445        0.34528204        1.91000000        1.65718201
    18.94620362       38.27388927        0.30399196        0.34444867        1.91000000        1.65517185
    19.01665016       38.33231790        0.30586848        0.34361489        1.91000000        1.65316450
    19.08687450       38.39074653        0.30774403        0.34278067        1.91000000        1.65115995
    19.15687946       38.44917516        0.30961863        0.34194600        1.91000000        1.64915817
    19.22666772       38.50760380        0.31149231        0.34111086        1.91000000        1.64715915
    19.29624194       38.56603243        0.31336509        0.34027522        1.91000000        1.64516287
    19.36560470       38.62446106        0.31523700        0.33943907        1.91000000        1.64316931
    19.43475853       38.68288969        0.31710805        0.33860239        1.91000000        1.64117846
    19.50370590       38.74131833        0.31897828        0.33776517        1.91000000        1.63919031
    19.57244920       38.79974696        0.32084770        0.33692737        1.91000000        1.63720484
    19.64099079       38.85817559        0.32271633        0.33608899        1.91000000        1.63522203
    19.70933297       38.91660422        0.32458420        0.33525000        1.91000000        1.63324186
    19.77747798       38.97503285        0.32645131        0.33441039        1.91000000        1.63126433
    19.84542801       39.03346149        0.32831770        0.33357014        1.91000000        1.62928941
    19.91318521       39.09189012        0.33018337        0.33272924        1.91000000        1.62731709
    19.98075168       39.15031875        0.33204834        0.33188767        1.91000000        1.62534736
    20.04812947       39.20874738        0.33391264        0.33104540        1.91000000        1.62338020
    20.11532057       39.26717602        0.33577627        0.33020243        1.91000000        1.62141559
    20.18232695       39.32560465        0.33763926        0.32935875        1.91000000        1.61945353
    20.24915053       39.38403328        0.33950161        0.32851432        1.91000000        1.61749400
    20.31579319       39.44246191        0.34136335        0.32766914        1.91000000        1.61553698
    20.38225675       39.50089055        0.34322448        0.32682320        1.91000000        1.61358247
    20.44854302       39.55931918        0.34508503        0.32597647        1.91000000        1.61163043
    20.51465375       39.61774781        0.34694499        0.32512895        1.91000000        1.60968087
    20.58059067       39.67617644        0.34880440        0.32428061        1.91000000        1.60773377
    20.64635545       39.73460507        0.35066325        0.32343145        1.91000000        1.60578912
    20.71194975       39.79303371        0.35252156        0.32258145        1.91000000        1.60384689
    20.77737518       39.85146234        0.35437935        0.32173059        1.91000000        1.60190709
    20.84263333       39.90989097        0.35623661        0.32087886        1.91000000        1.59996969
    20.90772574       39.96831960        0.35809337        0.32002626        1.91000000        1.59803469
    20.97265393       40.02674824        0.35994964        0.31917275        1.91000000        1.59610206
    21.03741938       40.08517687        0.36180541        0.31831834        1.91000000        1.59417180
    21.10202356       40.14360550        0.36366071        0.31746301        1.91000000        1.59224390
    21.16646789       40.20203413        0.36551554        0.31660674        1.91000000        1.59031834
    21.23075376       40.26046276        0.36736992        0.31574952        1.91000000        1.58839511
    21.29488255       40.31889140        0.36922384        0.31489134        1.91000000        1.58647420
    21.35885560       40.37732003        0.37107732        0.31403218        1.91000000        1.58455559
    21.42267422       40.43574866        0.37293037        0.31317204        1.91000000        1.58263928
    21.48633972       40.49417729        0.37478299        0.31231090        1.91000000        1.58072525
    21.54985334       40.55260593        0.37663519        0.31144875        1.91000000        1.57881349
    21.61321633       40.61103456        0.37848698        0.31058558        1.91000000        1.57690398
    21.67642991       40.66946319        0.38033836        0.30972137        1.91000000        1.57499673
    21.73949528       40.72789182        0.38218934        0.30885612        1.91000000        1.57309171
    21.80241359       40.78632045        0.38403993        0.30798981        1.91000000        1.57118892
    21.86518600       40.84474909        0.38589013        0.30712242        1.91000000        1.56928834
    21.92781363       40.90317772        0.38773995        0.30625396        1.91000000        1.56738996
    21.99029759       40.96160635        0.38958939        0.30538440        1.91000000        1.56549378
    22.05263896       41.02003498        0.39143846        0.30451373        1.91000000        1.56359977
    22.11483880       41.07846362        0.39328717        0.30364195        1.91000000        1.56170794
    22.17689814       41.13689225        0.39513551        0.30276905        1.91000000        1.55981827
    22.23881804       41.19532088        0.39698349        0.30189500        1.91000000        1.55793074
    22.30059947       41.25374951        0.39883113        0.30101981        1.91000000        1.55604535
    22.36224343       41.31217815        0.40067841        0.30014345        1.91000000        1.55416210
    22.42375088       41.37060678        0.40252534        0.29926593        1.91000000        1.55228096
    22.48512277       41.42903541        0.40437194        0.29838723        1.91000000        1.55040192
    22.54636003       41.48746404        0.40621819        0.29750733        1.91000000        1.54852499
    22.60746359       41.54589267        0.40806411        0.29662623        1.91000000        1.54665014
    22.66843432       41.60432131        0.40990970        0.29574392        1.91000000        1.54477738
    22.72927312       41.66274994        0.41175496        0.29486038        1.91000000        1.54290668
    22.78998085       41.72117857        0.41359989        0.29397561        1.91000000        1.54103804
    22.85055836       41.77960720        0.41544449        0.29308960        1.91000000        1.53917145
    22.91100648       41.83803584        0.41728877        0.29220234        1.91000000        1.53730690
    22.97132603       41.89646447        0.41913273        0.29131381        1.91000000        1.53544438
    23.03151782       41.95489310        0.42097637        0.29042401        1.91000000        1.53358388
    23.09158264       42.01332173        0.42281970        0.28953292        1.91000000        1.53172540
    23.15152125       42.07175036        0.42466271        0.28864054        1.91000000        1.52986892
