#  Theta paroi en deg Angle Choc en deg       Kp           Inverse Mach       Mach amont       Mach aval
     0.00000000        1.14599200        0.00000000        0.98000000       50.00000000
     0.20905254        1.14865762        0.00005485        0.97973586       50.00000000       49.96123532
     0.25511379        1.15238729        0.00007596        0.97963948       50.00000000       49.90724589
     0.30605440        1.15930913        0.00010219        0.97952337       50.00000000       49.80780297
     0.36445194        1.17155124        0.00013584        0.97937993       50.00000000       49.63424856
     0.43037305        1.19124172        0.00017833        0.97920684       50.00000000       49.36097942
     0.50456921        1.22050870        0.00023181        0.97899995       50.00000000       48.96707804
     0.58840602        1.26148027        0.00029953        0.97875279       50.00000000       48.43739615
     0.68353897        1.31628454        0.00038587        0.97845669       50.00000000       47.76247138
     0.79171687        1.38704963        0.00049654        0.97810079       50.00000000       46.93712690
     0.91468975        1.47590364        0.00063877        0.97767165       50.00000000       45.95829362
     1.02903294        1.56475765        0.00078698        0.97724892       50.00000000       45.02885701
     1.13767771        1.65361166        0.00094223        0.97682581       50.00000000       44.13816401
     1.24223003        1.74246566        0.00110506        0.97639879       50.00000000       43.27905599
     1.34368015        1.83131967        0.00127576        0.97596588       50.00000000       42.44668265
     1.44268925        1.92017368        0.00145448        0.97552593       50.00000000       41.63773977
     1.53972431        2.00902769        0.00164135        0.97507832       50.00000000       40.84996748
     1.63512924        2.09788170        0.00183642        0.97462272       50.00000000       40.08181371
     1.72916566        2.18673570        0.00203975        0.97415901       50.00000000       39.33220532
     1.82203761        2.27558971        0.00225135        0.97368723       50.00000000       38.60039073
     1.91390765        2.36444372        0.00247126        0.97320747       50.00000000       37.88583121
     2.00490748        2.45329773        0.00269949        0.97271990       50.00000000       37.18812547
     2.09514528        2.54215174        0.00293606        0.97222475       50.00000000       36.50695763
     2.18471123        2.63100574        0.00318096        0.97172224       50.00000000       35.84206135
     2.27368087        2.71985975        0.00343420        0.97121263       50.00000000       35.19319565
     2.36211850        2.80871376        0.00369579        0.97069618       50.00000000       34.56012874
     2.45007901        2.89756777        0.00396573        0.97017315       50.00000000       33.94262772
     2.53760972        2.98642178        0.00424402        0.96964381       50.00000000       33.34045227
     2.62475173        3.07527578        0.00453067        0.96910842       50.00000000       32.75335123
     2.71154078        3.16412979        0.00482566        0.96856722       50.00000000       32.18106112
     2.79800823        3.25298380        0.00512901        0.96802047       50.00000000       31.62330600
     2.88418186        3.34183781        0.00544071        0.96746839       50.00000000       31.07979814
     2.97008603        3.43069182        0.00576075        0.96691121       50.00000000       30.55023933
     3.05574250        3.51954582        0.00608914        0.96634916       50.00000000       30.03432243
     3.14117073        3.60839983        0.00642587        0.96578244       50.00000000       29.53173308
     3.22638804        3.69725384        0.00677094        0.96521125       50.00000000       29.04215144
     3.31141008        3.78610785        0.00712436        0.96463579       50.00000000       28.56525394
     3.39625087        3.87496186        0.00748611        0.96405622       50.00000000       28.10071484
     3.48092310        3.96381586        0.00785619        0.96347273       50.00000000       27.64820774
     3.56543832        4.05266987        0.00823460        0.96288549       50.00000000       27.20740695
     3.64980696        4.14152388        0.00862134        0.96229463       50.00000000       26.77798869
     3.73403853        4.23037789        0.00901641        0.96170032       50.00000000       26.35963214
     3.81814170        4.31923190        0.00941979        0.96110269       50.00000000       25.95202036
     3.90212444        4.40808590        0.00983149        0.96050188       50.00000000       25.55484110
     3.98599402        4.49693991        0.01025150        0.95989801       50.00000000       25.16778745
     4.06975712        4.58579392        0.01067983        0.95929120       50.00000000       24.79055841
     4.15341990        4.67464793        0.01111645        0.95868157       50.00000000       24.42285931
     4.23698801        4.76350194        0.01156138        0.95806922       50.00000000       24.06440221
     4.32046664        4.85235594        0.01201461        0.95745426       50.00000000       23.71490612
     4.40386071        4.94120995        0.01247613        0.95683678       50.00000000       23.37409726
     4.48717460        5.03006396        0.01294593        0.95621688       50.00000000       23.04170916
     4.57041255        5.11891797        0.01342403        0.95559465       50.00000000       22.71748277
     4.65357834        5.20777198        0.01391040        0.95497016       50.00000000       22.40116648
     4.73667558        5.29662598        0.01440504        0.95434349       50.00000000       22.09251612
     4.81970764        5.38547999        0.01490796        0.95371472       50.00000000       21.79129490
     4.90267758        5.47433400        0.01541914        0.95308393       50.00000000       21.49727339
     4.98558833        5.56318801        0.01593858        0.95245117       50.00000000       21.21022937
     5.06844258        5.65204202        0.01646628        0.95181652       50.00000000       20.92994775
     5.15124289        5.74089602        0.01700223        0.95118003       50.00000000       20.65622040
     5.23399161        5.82975003        0.01754642        0.95054176       50.00000000       20.38884606
     5.31669098        5.91860404        0.01809886        0.94990176       50.00000000       20.12763012
     5.39934310        6.00745805        0.01865953        0.94926010       50.00000000       19.87238450
     5.48194994        6.09631206        0.01922843        0.94861681       50.00000000       19.62292745
     5.56451330        6.18516606        0.01980555        0.94797195       50.00000000       19.37908339
     5.64703492        6.27402007        0.02039090        0.94732556       50.00000000       19.14068272
     5.72951650        6.36287408        0.02098445        0.94667768       50.00000000       18.90756165
     5.81195950        6.45172809        0.02158622        0.94602835       50.00000000       18.67956201
     5.89436541        6.54058210        0.02219618        0.94537762       50.00000000       18.45653106
     5.97673559        6.62943610        0.02281435        0.94472552       50.00000000       18.23832134
     6.05907133        6.71829011        0.02344070        0.94407208       50.00000000       18.02479049
     6.14137386        6.80714412        0.02407523        0.94341734       50.00000000       17.81580104
     6.22364434        6.89599813        0.02471795        0.94276133       50.00000000       17.61122026
     6.30588384        6.98485214        0.02536883        0.94210408       50.00000000       17.41092004
     6.38809345        7.07370614        0.02602789        0.94144562       50.00000000       17.21477665
     6.47027410        7.16256015        0.02669510        0.94078598       50.00000000       17.02267062
     6.55242672        7.25141416        0.02737046        0.94012518       50.00000000       16.83448661
     6.63455224        7.34026817        0.02805397        0.93946325       50.00000000       16.65011321
     6.71665146        7.42912218        0.02874562        0.93880021       50.00000000       16.46944282
     6.79872518        7.51797618        0.02944541        0.93813609       50.00000000       16.29237154
     6.88077416        7.60683019        0.03015332        0.93747090       50.00000000       16.11879897
     6.96279913        7.69568420        0.03086935        0.93680467       50.00000000       15.94862814
     7.04480077        7.78453821        0.03159349        0.93613742       50.00000000       15.78176534
     7.12677972        7.87339222        0.03232574        0.93546916       50.00000000       15.61812002
     7.20873661        7.96224622        0.03306609        0.93479992       50.00000000       15.45760467
     7.29067203        8.05110023        0.03381453        0.93412971       50.00000000       15.30013470
     7.37258653        8.13995424        0.03457105        0.93345855       50.00000000       15.14562834
     7.45448066        8.22880825        0.03533565        0.93278645       50.00000000       14.99400653
     7.53635492        8.31766226        0.03610832        0.93211343       50.00000000       14.84519282
     7.61820981        8.40651626        0.03688905        0.93143950       50.00000000       14.69911325
     7.70004579        8.49537027        0.03767784        0.93076467       50.00000000       14.55569630
     7.78186330        8.58422428        0.03847468        0.93008897       50.00000000       14.41487277
     7.86366276        8.67307829        0.03927955        0.92941239       50.00000000       14.27657571
     7.94544458        8.76193230        0.04009246        0.92873496       50.00000000       14.14074030
     8.02720915        8.85078630        0.04091339        0.92805668       50.00000000       14.00730382
     8.10895683        8.93964031        0.04174234        0.92737757       50.00000000       13.87620556
     8.19068798        9.02849432        0.04257930        0.92669763       50.00000000       13.74738671
     8.27240293        9.11734833        0.04342425        0.92601687       50.00000000       13.62079033
     8.35410201        9.20620234        0.04427720        0.92533531       50.00000000       13.49636127
     8.43578554        9.29505634        0.04513813        0.92465295       50.00000000       13.37404610
     8.51745380        9.38391035        0.04600704        0.92396980       50.00000000       13.25379305
     8.59910707        9.47276436        0.04688391        0.92328586       50.00000000       13.13555195
     8.68074561        9.56161837        0.04776875        0.92260115       50.00000000       13.01927418
     8.76236971        9.65047238        0.04866153        0.92191568       50.00000000       12.90491258
     8.84397960        9.73932638        0.04956226        0.92122944       50.00000000       12.79242146
     8.92557552        9.82818039        0.05047092        0.92054245       50.00000000       12.68175649
     9.00715768        9.91703440        0.05138750        0.91985471       50.00000000       12.57287467
     9.08872632       10.00588841        0.05231200        0.91916623       50.00000000       12.46573430
     9.17028165       10.09474242        0.05324441        0.91847701       50.00000000       12.36029490
     9.25182384       10.18359642        0.05418471        0.91778706       50.00000000       12.25651722
     9.33335310       10.27245043        0.05513290        0.91709638       50.00000000       12.15436312
     9.41486963       10.36130444        0.05608897        0.91640498       50.00000000       12.05379562
     9.49637357       10.45015845        0.05705292        0.91571286       50.00000000       11.95477878
     9.57786511       10.53901246        0.05802472        0.91502002       50.00000000       11.85727771
     9.65934441       10.62786646        0.05900437        0.91432648       50.00000000       11.76125853
     9.74081160       10.71672047        0.05999187        0.91363222       50.00000000       11.66668833
     9.82226686       10.80557448        0.06098720        0.91293727       50.00000000       11.57353512
     9.90371031       10.89442849        0.06199035        0.91224161       50.00000000       11.48176783
     9.98514209       10.98328250        0.06300132        0.91154525       50.00000000       11.39135625
    10.06656233       11.07213650        0.06402009        0.91084820       50.00000000       11.30227102
    10.14797115       11.16099051        0.06504665        0.91015046       50.00000000       11.21448360
    10.22936868       11.24984452        0.06608100        0.90945203       50.00000000       11.12796623
    10.31075501       11.33869853        0.06712312        0.90875290       50.00000000       11.04269193
    10.39213027       11.42755254        0.06817301        0.90805309       50.00000000       10.95863443
    10.47349454       11.51640654        0.06923065        0.90735260       50.00000000       10.87576820
    10.55484796       11.60526055        0.07029604        0.90665142       50.00000000       10.79406838
    10.63619057       11.69411456        0.07136915        0.90594957       50.00000000       10.71351079
    10.71752250       11.78296857        0.07245000        0.90524703       50.00000000       10.63407188
    10.79884381       11.87182258        0.07353855        0.90454381       50.00000000       10.55572875
    10.88015462       11.96067658        0.07463481        0.90383991       50.00000000       10.47845909
    10.96145496       12.04953059        0.07573875        0.90313534       50.00000000       10.40224118
    11.04274494       12.13838460        0.07685039        0.90243009       50.00000000       10.32705385
    11.12402461       12.22723861        0.07796969        0.90172416       50.00000000       10.25287651
    11.20529405       12.31609262        0.07909665        0.90101756       50.00000000       10.17968908
    11.28655332       12.40494662        0.08023126        0.90031028       50.00000000       10.10747201
    11.36780247       12.49380063        0.08137350        0.89960233       50.00000000       10.03620623
    11.44904159       12.58265464        0.08252338        0.89889370       50.00000000        9.96587318
    11.53027070       12.67150865        0.08368087        0.89818439       50.00000000        9.89645474
    11.61148986       12.76036266        0.08484596        0.89747441       50.00000000        9.82793328
    11.69269914       12.84921666        0.08601865        0.89676376       50.00000000        9.76029158
    11.77389857       12.93807067        0.08719892        0.89605242       50.00000000        9.69351286
    11.85508819       13.02692468        0.08838677        0.89534042       50.00000000        9.62758076
    11.93626806       13.11577869        0.08958217        0.89462773       50.00000000        9.56247931
    12.01743819       13.20463270        0.09078512        0.89391437       50.00000000        9.49819294
    12.09859864       13.29348670        0.09199561        0.89320032       50.00000000        9.43470646
    12.17974945       13.38234071        0.09321362        0.89248560       50.00000000        9.37200505
    12.26089064       13.47119472        0.09443914        0.89177020       50.00000000        9.31007422
    12.34202222       13.56004873        0.09567217        0.89105411       50.00000000        9.24889986
    12.42314427       13.64890274        0.09691268        0.89033735       50.00000000        9.18846819
    12.50425677       13.73775674        0.09816068        0.88961989       50.00000000        9.12876573
    12.58535976       13.82661075        0.09941613        0.88890176       50.00000000        9.06977936
    12.66645326       13.91546476        0.10067905        0.88818294       50.00000000        9.01149623
    12.74753730       14.00431877        0.10194940        0.88746343       50.00000000        8.95390381
    12.82861189       14.09317278        0.10322718        0.88674323       50.00000000        8.89698986
    12.90967705       14.18202678        0.10451238        0.88602234       50.00000000        8.84074241
    12.99073279       14.27088079        0.10580499        0.88530075       50.00000000        8.78514977
    13.07177912       14.35973480        0.10710498        0.88457847       50.00000000        8.73020052
    13.15281607       14.44858881        0.10841236        0.88385550       50.00000000        8.67588351
    13.23384364       14.53744282        0.10972710        0.88313183       50.00000000        8.62218782
    13.31486184       14.62629682        0.11104920        0.88240746       50.00000000        8.56910280
    13.39587067       14.71515083        0.11237863        0.88168238       50.00000000        8.51661800
    13.47687014       14.80400484        0.11371540        0.88095660       50.00000000        8.46472325
    13.55786026       14.89285885        0.11505948        0.88023012       50.00000000        8.41340857
    13.63884104       14.98171286        0.11641087        0.87950293       50.00000000        8.36266422
    13.71981247       15.07056686        0.11776954        0.87877502       50.00000000        8.31248067
    13.80077455       15.15942087        0.11913550        0.87804641       50.00000000        8.26284858
    13.88172728       15.24827488        0.12050871        0.87731708       50.00000000        8.21375883
    13.96267066       15.33712889        0.12188918        0.87658703       50.00000000        8.16520250
    14.04360469       15.42598290        0.12327688        0.87585626       50.00000000        8.11717086
    14.12452937       15.51483690        0.12467181        0.87512477       50.00000000        8.06965535
    14.20544468       15.60369091        0.12607395        0.87439256       50.00000000        8.02264761
    14.28635063       15.69254492        0.12748328        0.87365962       50.00000000        7.97613945
    14.36724720       15.78139893        0.12889980        0.87292594       50.00000000        7.93012285
    14.44813438       15.87025294        0.13032349        0.87219154       50.00000000        7.88458997
    14.52901218       15.95910694        0.13175433        0.87145640       50.00000000        7.83953313
    14.60988057       16.04796095        0.13319232        0.87072052       50.00000000        7.79494479
    14.69073955       16.13681496        0.13463744        0.86998390       50.00000000        7.75081760
    14.77158910       16.22566897        0.13608967        0.86924653       50.00000000        7.70714432
    14.85242921       16.31452298        0.13754900        0.86850842       50.00000000        7.66391790
    14.93325986       16.40337698        0.13901541        0.86776956       50.00000000        7.62113141
    15.01408105       16.49223099        0.14048890        0.86702994       50.00000000        7.57877806
    15.09489274       16.58108500        0.14196945        0.86628957       50.00000000        7.53685121
    15.17569494       16.66993901        0.14345704        0.86554844       50.00000000        7.49534434
    15.25648761       16.75879302        0.14495167        0.86480655       50.00000000        7.45425106
    15.33727075       16.84764702        0.14645330        0.86406390       50.00000000        7.41356512
    15.41804432       16.93650103        0.14796194        0.86332047       50.00000000        7.37328040
    15.49880832       17.02535504        0.14947756        0.86257627       50.00000000        7.33339086
    15.57956271       17.11420905        0.15100016        0.86183130       50.00000000        7.29389063
