#  Theta paroi en deg Angle Choc en deg       Kp           Inverse Mach       Mach amont       Mach aval
     0.00000000       23.57817848        0.00000000        0.60000000        2.50000000
     1.78512573       23.58017113        0.00559892        0.59749612        2.50000000        2.49988048
     2.15057310       23.58295921        0.00765030        0.59658639        2.50000000        2.49971327
     2.54517899       23.58813355        0.01012447        0.59549450        2.50000000        2.49940303
     2.97150091       23.59728500        0.01307649        0.59419920        2.50000000        2.49885458
     3.41201269       23.61200441        0.01641009        0.59274601        2.50000000        2.49797310
     3.85632352       23.63388261        0.02004651        0.59117209        2.50000000        2.49666444
     4.30041946       23.66451045        0.02394205        0.58949871        2.50000000        2.49483544
     4.74363827       23.70547877        0.02807869        0.58773570        2.50000000        2.49239443
     5.18687265       23.75837842        0.03245506        0.58588569        2.50000000        2.48925173
     5.63169283       23.82480024        0.03708071        0.58394668        2.50000000        2.48532024
     6.00280322       23.89122206        0.04111468        0.58226899        2.50000000        2.48140474
     6.32608687       23.95764388        0.04475605        0.58076488        2.50000000        2.47750499
     6.61551839       24.02406571        0.04811531        0.57938570        2.50000000        2.47362079
     6.87957198       24.09048753        0.05126094        0.57810134        2.50000000        2.46975193
     7.12380577       24.15690935        0.05423864        0.57689173        2.50000000        2.46589819
     7.35207824       24.22333117        0.05708057        0.57574271        2.50000000        2.46205938
     7.56718609       24.28975299        0.05981034        0.57464392        2.50000000        2.45823529
     7.77122631       24.35617481        0.06244584        0.57358750        2.50000000        2.45442572
     7.96581497       24.42259664        0.06500097        0.57256734        2.50000000        2.45063047
     8.15222591       24.48901846        0.06748679        0.57157858        2.50000000        2.44684937
     8.33148247       24.55544028        0.06991222        0.57061730        2.50000000        2.44308221
     8.50442015       24.62186210        0.07228462        0.56968026        2.50000000        2.43932883
     8.67173059       24.68828392        0.07461008        0.56876476        2.50000000        2.43558902
     8.83399339       24.75470574        0.07689376        0.56786855        2.50000000        2.43186262
     8.99169945       24.82112756        0.07914003        0.56698969        2.50000000        2.42814945
     9.14526843       24.88754939        0.08135264        0.56612652        2.50000000        2.42444935
     9.29506219       24.95397121        0.08353485        0.56527761        2.50000000        2.42076213
     9.44139510       25.02039303        0.08568948        0.56444169        2.50000000        2.41708763
     9.58454212       25.08681485        0.08781901        0.56361767        2.50000000        2.41342569
     9.72474523       25.15323667        0.08992563        0.56280458        2.50000000        2.40977615
     9.86221862       25.21965849        0.09201129        0.56200155        2.50000000        2.40613885
     9.99715284       25.28608031        0.09407770        0.56120780        2.50000000        2.40251363
    10.12971825       25.35250214        0.09612642        0.56042265        2.50000000        2.39890034
    10.26006774       25.41892396        0.09815883        0.55964548        2.50000000        2.39529883
    10.38833919       25.48534578        0.10017620        0.55887571        2.50000000        2.39170896
    10.51465733       25.55176760        0.10217966        0.55811284        2.50000000        2.38813057
    10.63913542       25.61818942        0.10417023        0.55735639        2.50000000        2.38456352
    10.76187663       25.68461124        0.10614886        0.55660595        2.50000000        2.38100768
    10.88297521       25.75103307        0.10811640        0.55586113        2.50000000        2.37746290
    11.00251755       25.81745489        0.11007365        0.55512156        2.50000000        2.37392905
    11.12058303       25.88387671        0.11202132        0.55438691        2.50000000        2.37040599
    11.23724471       25.95029853        0.11396008        0.55365687        2.50000000        2.36689359
    11.35257011       26.01672035        0.11589054        0.55293118        2.50000000        2.36339172
    11.46662166       26.08314217        0.11781326        0.55220955        2.50000000        2.35990026
    11.57945726       26.14956399        0.11972878        0.55149176        2.50000000        2.35641907
    11.69113074       26.21598582        0.12163757        0.55077757        2.50000000        2.35294804
    11.80169216       26.28240764        0.12354009        0.55006676        2.50000000        2.34948704
    11.91118823       26.34882946        0.12543676        0.54935915        2.50000000        2.34603595
    12.01966259       26.41525128        0.12732798        0.54865455        2.50000000        2.34259466
    12.12715606       26.48167310        0.12921410        0.54795277        2.50000000        2.33916304
    12.23370690       26.54809492        0.13109547        0.54725366        2.50000000        2.33574099
    12.33935103       26.61451675        0.13297242        0.54655707        2.50000000        2.33232840
    12.44412219       26.68093857        0.13484524        0.54586284        2.50000000        2.32892514
    12.54805215       26.74736039        0.13671421        0.54517084        2.50000000        2.32553112
    12.65117084       26.81378221        0.13857960        0.54448095        2.50000000        2.32214622
    12.75350650       26.88020403        0.14044166        0.54379303        2.50000000        2.31877034
    12.85508581       26.94662585        0.14230062        0.54310697        2.50000000        2.31540338
    12.95593401       27.01304767        0.14415671        0.54242267        2.50000000        2.31204524
    13.05607498       27.07946950        0.14601013        0.54174001        2.50000000        2.30869581
    13.15553137       27.14589132        0.14786108        0.54105890        2.50000000        2.30535499
    13.25432465       27.21231314        0.14970974        0.54037924        2.50000000        2.30202269
    13.35247524       27.27873496        0.15155630        0.53970095        2.50000000        2.29869882
    13.45000251       27.34515678        0.15340091        0.53902393        2.50000000        2.29538327
    13.54692493       27.41157860        0.15524374        0.53834811        2.50000000        2.29207595
    13.64326005       27.47800043        0.15708494        0.53767340        2.50000000        2.28877678
    13.73902462       27.54442225        0.15892464        0.53699974        2.50000000        2.28548566
    13.83423462       27.61084407        0.16076298        0.53632704        2.50000000        2.28220250
    13.92890529       27.67726589        0.16260010        0.53565525        2.50000000        2.27892722
    14.02305120       27.74368771        0.16443610        0.53498429        2.50000000        2.27565973
    14.11668627       27.81010953        0.16627111        0.53431410        2.50000000        2.27239994
    14.20982382       27.87653135        0.16810524        0.53364463        2.50000000        2.26914778
    14.30247662       27.94295318        0.16993859        0.53297580        2.50000000        2.26590315
    14.39465688       28.00937500        0.17177126        0.53230758        2.50000000        2.26266599
    14.48637631       28.07579682        0.17360334        0.53163989        2.50000000        2.25943620
    14.57764616       28.14221864        0.17543493        0.53097270        2.50000000        2.25621372
    14.66847719       28.20864046        0.17726611        0.53030595        2.50000000        2.25299845
    14.75887979       28.27506228        0.17909696        0.52963959        2.50000000        2.24979034
    14.84886390       28.34148410        0.18092757        0.52897358        2.50000000        2.24658929
    14.93843909       28.40790593        0.18275800        0.52830787        2.50000000        2.24339525
    15.02761457       28.47432775        0.18458833        0.52764242        2.50000000        2.24020813
    15.11639921       28.54074957        0.18641862        0.52697719        2.50000000        2.23702786
    15.20480153       28.60717139        0.18824895        0.52631213        2.50000000        2.23385437
    15.29282977       28.67359321        0.19007937        0.52564720        2.50000000        2.23068760
    15.38049185       28.74001503        0.19190995        0.52498238        2.50000000        2.22752748
    15.46779541       28.80643686        0.19374073        0.52431762        2.50000000        2.22437393
    15.55474784       28.87285868        0.19557178        0.52365288        2.50000000        2.22122689
    15.64135626       28.93928050        0.19740315        0.52298813        2.50000000        2.21808629
    15.72762755       29.00570232        0.19923488        0.52232335        2.50000000        2.21495208
    15.81356835       29.07212414        0.20106702        0.52165848        2.50000000        2.21182418
    15.89918508       29.13854596        0.20289963        0.52099352        2.50000000        2.20870254
    15.98448396       29.20496778        0.20473273        0.52032841        2.50000000        2.20558708
    16.06947099       29.27138961        0.20656639        0.51966314        2.50000000        2.20247776
    16.15415200       29.33781143        0.20840062        0.51899767        2.50000000        2.19937451
    16.23853260       29.40423325        0.21023548        0.51833198        2.50000000        2.19627728
    16.32261824       29.47065507        0.21207100        0.51766604        2.50000000        2.19318599
    16.40641423       29.53707689        0.21390721        0.51699982        2.50000000        2.19010061
    16.48992566       29.60349871        0.21574415        0.51633329        2.50000000        2.18702106
    16.57315750       29.66992054        0.21758185        0.51566644        2.50000000        2.18394730
    16.65611457       29.73634236        0.21942034        0.51499923        2.50000000        2.18087926
    16.73880153       29.80276418        0.22125965        0.51433164        2.50000000        2.17781691
    16.82122291       29.86918600        0.22309981        0.51366365        2.50000000        2.17476017
    16.90338312       29.93560782        0.22494084        0.51299523        2.50000000        2.17170900
    16.98528642       30.00202964        0.22678278        0.51232637        2.50000000        2.16866335
    17.06693696       30.06845146        0.22862564        0.51165703        2.50000000        2.16562317
    17.14833877       30.13487329        0.23046944        0.51098721        2.50000000        2.16258840
    17.22949576       30.20129511        0.23231422        0.51031687        2.50000000        2.15955900
    17.31041175       30.26771693        0.23415999        0.50964600        2.50000000        2.15653491
    17.39109044       30.33413875        0.23600678        0.50897458        2.50000000        2.15351609
    17.47153543       30.40056057        0.23785460        0.50830258        2.50000000        2.15050250
    17.55175023       30.46698239        0.23970347        0.50762999        2.50000000        2.14749408
    17.63173825       30.53340422        0.24155340        0.50695679        2.50000000        2.14449079
    17.71150280       30.59982604        0.24340443        0.50628297        2.50000000        2.14149258
    17.79104712       30.66624786        0.24525656        0.50560849        2.50000000        2.13849941
    17.87037435       30.73266968        0.24710981        0.50493335        2.50000000        2.13551123
    17.94948758       30.79909150        0.24896419        0.50425752        2.50000000        2.13252800
    18.02838977       30.86551332        0.25081971        0.50358100        2.50000000        2.12954968
    18.10708385       30.93193514        0.25267640        0.50290376        2.50000000        2.12657623
    18.18557266       30.99835697        0.25453427        0.50222579        2.50000000        2.12360759
    18.26385895       31.06477879        0.25639331        0.50154707        2.50000000        2.12064374
    18.34194545       31.13120061        0.25825356        0.50086758        2.50000000        2.11768463
    18.41983477       31.19762243        0.26011501        0.50018731        2.50000000        2.11473022
    18.49752949       31.26404425        0.26197768        0.49950625        2.50000000        2.11178048
    18.57503211       31.33046607        0.26384158        0.49882437        2.50000000        2.10883535
    18.65234509       31.39688789        0.26570672        0.49814167        2.50000000        2.10589481
    18.72947080       31.46330972        0.26757311        0.49745813        2.50000000        2.10295881
    18.80641159       31.52973154        0.26944074        0.49677373        2.50000000        2.10002733
    18.88316973       31.59615336        0.27130965        0.49608846        2.50000000        2.09710031
    18.95974745       31.66257518        0.27317982        0.49540232        2.50000000        2.09417773
    19.03614692       31.72899700        0.27505126        0.49471527        2.50000000        2.09125955
    19.11237027       31.79541882        0.27692399        0.49402731        2.50000000        2.08834574
    19.18841957       31.86184065        0.27879801        0.49333843        2.50000000        2.08543625
    19.26429685       31.92826247        0.28067332        0.49264862        2.50000000        2.08253106
    19.34000410       31.99468429        0.28254994        0.49195785        2.50000000        2.07963013
    19.41554326       32.06110611        0.28442785        0.49126612        2.50000000        2.07673343
    19.49091621       32.12752793        0.28630708        0.49057342        2.50000000        2.07384093
    19.56612482       32.19394975        0.28818762        0.48987973        2.50000000        2.07095259
    19.64117091       32.26037157        0.29006947        0.48918503        2.50000000        2.06806838
    19.71605625       32.32679340        0.29195264        0.48848933        2.50000000        2.06518826
    19.79078257       32.39321522        0.29383714        0.48779260        2.50000000        2.06231222
    19.86535158       32.45963704        0.29572296        0.48709484        2.50000000        2.05944021
    19.93976494       32.52605886        0.29761011        0.48639603        2.50000000        2.05657221
    20.01402428       32.59248068        0.29949859        0.48569616        2.50000000        2.05370818
    20.08813120       32.65890250        0.30138841        0.48499522        2.50000000        2.05084811
    20.16208726       32.72532433        0.30327955        0.48429320        2.50000000        2.04799195
    20.23589399       32.79174615        0.30517203        0.48359009        2.50000000        2.04513968
    20.30955289       32.85816797        0.30706585        0.48288587        2.50000000        2.04229127
    20.38306542       32.92458979        0.30896100        0.48218054        2.50000000        2.03944670
    20.45643302       32.99101161        0.31085748        0.48147409        2.50000000        2.03660593
    20.52965711       33.05743343        0.31275531        0.48076650        2.50000000        2.03376894
    20.60273906       33.12385525        0.31465447        0.48005776        2.50000000        2.03093570
    20.67568023       33.19027708        0.31655496        0.47934786        2.50000000        2.02810619
    20.74848194       33.25669890        0.31845680        0.47863680        2.50000000        2.02528038
    20.82114550       33.32312072        0.32035996        0.47792456        2.50000000        2.02245824
    20.89367218       33.38954254        0.32226447        0.47721113        2.50000000        2.01963975
    20.96606322       33.45596436        0.32417030        0.47649651        2.50000000        2.01682488
    21.03831986       33.52238618        0.32607747        0.47578067        2.50000000        2.01401361
    21.11044330       33.58880801        0.32798596        0.47506362        2.50000000        2.01120591
    21.18243471       33.65522983        0.32989579        0.47434534        2.50000000        2.00840177
    21.25429525       33.72165165        0.33180694        0.47362583        2.50000000        2.00560115
    21.32602606       33.78807347        0.33371941        0.47290507        2.50000000        2.00280404
    21.39762825       33.85449529        0.33563321        0.47218305        2.50000000        2.00001040
    21.46910290       33.92091711        0.33754832        0.47145976        2.50000000        1.99722022
    21.54045110       33.98733893        0.33946476        0.47073520        2.50000000        1.99443348
    21.61167390       34.05376076        0.34138250        0.47000936        2.50000000        1.99165014
    21.68277232       34.12018258        0.34330156        0.46928222        2.50000000        1.98887020
    21.75374737       34.18660440        0.34522192        0.46855378        2.50000000        1.98609363
    21.82460006       34.25302622        0.34714359        0.46782403        2.50000000        1.98332041
    21.89533136       34.31944804        0.34906656        0.46709295        2.50000000        1.98055051
    21.96594222       34.38586986        0.35099083        0.46636055        2.50000000        1.97778392
    22.03643359       34.45229168        0.35291639        0.46562680        2.50000000        1.97502061
    22.10680638       34.51871351        0.35484324        0.46489171        2.50000000        1.97226057
    22.17706152       34.58513533        0.35677137        0.46415526        2.50000000        1.96950377
    22.24719988       34.65155715        0.35870079        0.46341745        2.50000000        1.96675020
    22.31722234       34.71797897        0.36063148        0.46267826        2.50000000        1.96399984
    22.38712977       34.78440079        0.36256345        0.46193769        2.50000000        1.96125266
    22.45692299       34.85082261        0.36449668        0.46119572        2.50000000        1.95850866
    22.52660286       34.91724444        0.36643118        0.46045235        2.50000000        1.95576780
    22.59617017       34.98366626        0.36836693        0.45970758        2.50000000        1.95303007
    22.66562572       35.05008808        0.37030394        0.45896139        2.50000000        1.95029546
    22.73497030       35.11650990        0.37224220        0.45821377        2.50000000        1.94756394
    22.80420469       35.18293172        0.37418170        0.45746472        2.50000000        1.94483549
    22.87332964       35.24935354        0.37612244        0.45671422        2.50000000        1.94211011
    22.94234591       35.31577536        0.37806442        0.45596227        2.50000000        1.93938777
    23.01125420       35.38219719        0.38000762        0.45520887        2.50000000        1.93666846
    23.08005527       35.44861901        0.38195204        0.45445399        2.50000000        1.93395216
    23.14874979       35.51504083        0.38389768        0.45369764        2.50000000        1.93123885
