#  Theta paroi en deg Angle Choc en deg       Kp           Inverse Mach       Mach amont       Mach aval
     0.00000000       28.58545109        0.00000000        0.52153110        2.09000000
     1.95908954       28.58729353        0.00702266        0.51839550        2.09000000        2.08991183
     2.35097981       28.58987142        0.00954882        0.51727342        2.09000000        2.08978848
     2.77824440       28.59465569        0.01262484        0.51591115        2.09000000        2.08955959
     3.24181660       28.60311725        0.01631291        0.51428359        2.09000000        2.08915491
     3.72147619       28.61672702        0.02048626        0.51244926        2.09000000        2.08850438
     4.20503649       28.63695591        0.02503847        0.51045712        2.09000000        2.08753829
     4.68747254       28.66527484        0.02990659        0.50833649        2.09000000        2.08618749
     5.16755124       28.70315473        0.03505965        0.50610239        2.09000000        2.08438364
     5.64582013       28.75206649        0.04048740        0.50376065        2.09000000        2.08205948
     6.12361831       28.81348104        0.04619304        0.50131124        2.09000000        2.07914920
     6.52037253       28.87489559        0.05114010        0.49919726        2.09000000        2.07624773
     6.86450894       28.93631014        0.05558151        0.49730683        2.09000000        2.07335496
     7.17138575       28.99772469        0.05965800        0.49557774        2.09000000        2.07047082
     7.45032071       29.05913923        0.06345692        0.49397143        2.09000000        2.06759521
     7.70742752       29.12055378        0.06703667        0.49246210        2.09000000        2.06472804
     7.94695163       29.18196833        0.07043844        0.49103159        2.09000000        2.06186923
     8.17197102       29.24338288        0.07369250        0.48966655        2.09000000        2.05901870
     8.38479404       29.30479743        0.07682178        0.48835684        2.09000000        2.05617635
     8.58720000       29.36621198        0.07984419        0.48709459        2.09000000        2.05334212
     8.78059167       29.42762653        0.08277392        0.48587352        2.09000000        2.05051591
     8.96609611       29.48904108        0.08562251        0.48468855        2.09000000        2.04769765
     9.14463362       29.55045563        0.08839942        0.48353550        2.09000000        2.04488726
     9.31696620       29.61187017        0.09111254        0.48241088        2.09000000        2.04208466
     9.48373247       29.67328472        0.09376854        0.48131175        2.09000000        2.03928977
     9.64547332       29.73469927        0.09637307        0.48023562        2.09000000        2.03650252
     9.80265130       29.79611382        0.09893100        0.47918032        2.09000000        2.03372283
     9.95566523       29.85752837        0.10144656        0.47814400        2.09000000        2.03095062
    10.10486164       29.91894292        0.10392341        0.47712502        2.09000000        2.02818583
    10.25054367       29.98035747        0.10636478        0.47612195        2.09000000        2.02542838
    10.39297812       30.04177202        0.10877354        0.47513353        2.09000000        2.02267820
    10.53240116       30.10318657        0.11115220        0.47415863        2.09000000        2.01993523
    10.66902294       30.16460111        0.11350302        0.47319625        2.09000000        2.01719938
    10.80303130       30.22601566        0.11582804        0.47224549        2.09000000        2.01447059
    10.93459495       30.28743021        0.11812907        0.47130553        2.09000000        2.01174879
    11.06386592       30.34884476        0.12040776        0.47037564        2.09000000        2.00903393
    11.19098184       30.41025931        0.12266559        0.46945516        2.09000000        2.00632592
    11.31606765       30.47167386        0.12490393        0.46854347        2.09000000        2.00362471
    11.43923718       30.53308841        0.12712401        0.46764002        2.09000000        2.00093023
    11.56059445       30.59450296        0.12932696        0.46674431        2.09000000        1.99824241
    11.68023480       30.65591751        0.13151383        0.46585586        2.09000000        1.99556121
    11.79824579       30.71733205        0.13368556        0.46497424        2.09000000        1.99288654
    11.91470810       30.77874660        0.13584303        0.46409905        2.09000000        1.99021836
    12.02969624       30.84016115        0.13798707        0.46322993        2.09000000        1.98755659
    12.14327911       30.90157570        0.14011841        0.46236654        2.09000000        1.98490119
    12.25552065       30.96299025        0.14223777        0.46150855        2.09000000        1.98225209
    12.36648024       31.02440480        0.14434578        0.46065567        2.09000000        1.97960924
    12.47621319       31.08581935        0.14644306        0.45980763        2.09000000        1.97697257
    12.58477106       31.14723390        0.14853016        0.45896416        2.09000000        1.97434203
    12.69220202       31.20864845        0.15060760        0.45812502        2.09000000        1.97171757
    12.79855115       31.27006300        0.15267590        0.45728999        2.09000000        1.96909912
    12.90386069       31.33147754        0.15473549        0.45645884        2.09000000        1.96648664
    13.00817030       31.39289209        0.15678682        0.45563139        2.09000000        1.96388007
    13.11151724       31.45430664        0.15883029        0.45480745        2.09000000        1.96127936
    13.21393659       31.51572119        0.16086628        0.45398682        2.09000000        1.95868445
    13.31546140       31.57713574        0.16289515        0.45316935        2.09000000        1.95609529
    13.41612285       31.63855029        0.16491724        0.45235487        2.09000000        1.95351183
    13.51595040       31.69996484        0.16693287        0.45154324        2.09000000        1.95093402
    13.61497194       31.76137939        0.16894233        0.45073430        2.09000000        1.94836181
    13.71321381       31.82279394        0.17094592        0.44992793        2.09000000        1.94579515
    13.81070104       31.88420848        0.17294391        0.44912400        2.09000000        1.94323400
    13.90745733       31.94562303        0.17493654        0.44832237        2.09000000        1.94067829
    14.00350522       32.00703758        0.17692407        0.44752294        2.09000000        1.93812799
    14.09886611       32.06845213        0.17890672        0.44672559        2.09000000        1.93558305
    14.19356038       32.12986668        0.18088470        0.44593022        2.09000000        1.93304342
    14.28760742       32.19128123        0.18285823        0.44513672        2.09000000        1.93050906
    14.38102571       32.25269578        0.18482751        0.44434500        2.09000000        1.92797992
    14.47383290       32.31411033        0.18679271        0.44355496        2.09000000        1.92545595
    14.56604580       32.37552488        0.18875402        0.44276652        2.09000000        1.92293711
    14.65768050       32.43693942        0.19071162        0.44197958        2.09000000        1.92042336
    14.74875237       32.49835397        0.19266565        0.44119408        2.09000000        1.91791465
    14.83927610       32.55976852        0.19461627        0.44040992        2.09000000        1.91541094
    14.92926578       32.62118307        0.19656364        0.43962704        2.09000000        1.91291220
    15.01873489       32.68259762        0.19850790        0.43884535        2.09000000        1.91041837
    15.10769635       32.74401217        0.20044917        0.43806480        2.09000000        1.90792941
    15.19616257       32.80542672        0.20238758        0.43728532        2.09000000        1.90544529
    15.28414543       32.86684127        0.20432327        0.43650683        2.09000000        1.90296596
    15.37165637       32.92825582        0.20625634        0.43572929        2.09000000        1.90049139
    15.45870635       32.98967036        0.20818692        0.43495262        2.09000000        1.89802153
    15.54530596       33.05108491        0.21011510        0.43417677        2.09000000        1.89555635
    15.63146532       33.11249946        0.21204099        0.43340169        2.09000000        1.89309581
    15.71719422       33.17391401        0.21396469        0.43262731        2.09000000        1.89063986
    15.80250206       33.23532856        0.21588630        0.43185360        2.09000000        1.88818848
    15.88739791       33.29674311        0.21780590        0.43108049        2.09000000        1.88574163
    15.97189050       33.35815766        0.21972359        0.43030794        2.09000000        1.88329926
    16.05598826       33.41957221        0.22163945        0.42953591        2.09000000        1.88086135
    16.13969931       33.48098676        0.22355355        0.42876434        2.09000000        1.87842785
    16.22303152       33.54240130        0.22546598        0.42799319        2.09000000        1.87599873
    16.30599243       33.60381585        0.22737681        0.42722242        2.09000000        1.87357396
    16.38858939       33.66523040        0.22928612        0.42645199        2.09000000        1.87115350
    16.47082945       33.72664495        0.23119396        0.42568186        2.09000000        1.86873732
    16.55271945       33.78805950        0.23310041        0.42491198        2.09000000        1.86632538
    16.63426602       33.84947405        0.23500553        0.42414233        2.09000000        1.86391766
    16.71547554       33.91088860        0.23690938        0.42337285        2.09000000        1.86151411
    16.79635420       33.97230315        0.23881202        0.42260353        2.09000000        1.85911470
    16.87690802       34.03371770        0.24071351        0.42183432        2.09000000        1.85671941
    16.95714278       34.09513224        0.24261390        0.42106518        2.09000000        1.85432820
    17.03706413       34.15654679        0.24451324        0.42029609        2.09000000        1.85194104
    17.11667751       34.21796134        0.24641159        0.41952701        2.09000000        1.84955790
    17.19598822       34.27937589        0.24830899        0.41875791        2.09000000        1.84717874
    17.27500138       34.34079044        0.25020549        0.41798876        2.09000000        1.84480355
    17.35372197       34.40220499        0.25210113        0.41721954        2.09000000        1.84243227
    17.43215483       34.46361954        0.25399597        0.41645020        2.09000000        1.84006490
    17.51030463       34.52503409        0.25589003        0.41568073        2.09000000        1.83770140
    17.58817594       34.58644864        0.25778337        0.41491109        2.09000000        1.83534173
    17.66577317       34.64786318        0.25967601        0.41414126        2.09000000        1.83298587
    17.74310064       34.70927773        0.26156801        0.41337121        2.09000000        1.83063380
    17.82016250       34.77069228        0.26345938        0.41260092        2.09000000        1.82828548
    17.89696283       34.83210683        0.26535018        0.41183036        2.09000000        1.82594089
    17.97350557       34.89352138        0.26724043        0.41105950        2.09000000        1.82359999
    18.04979458       34.95493593        0.26913016        0.41028833        2.09000000        1.82126277
    18.12583357       35.01635048        0.27101941        0.40951681        2.09000000        1.81892919
    18.20162619       35.07776503        0.27290820        0.40874492        2.09000000        1.81659924
    18.27717598       35.13917958        0.27479657        0.40797265        2.09000000        1.81427287
    18.35248640       35.20059413        0.27668455        0.40719997        2.09000000        1.81195007
    18.42756079       35.26200867        0.27857215        0.40642686        2.09000000        1.80963081
    18.50240242       35.32342322        0.28045941        0.40565329        2.09000000        1.80731507
    18.57701450       35.38483777        0.28234635        0.40487925        2.09000000        1.80500281
    18.65140010       35.44625232        0.28423300        0.40410471        2.09000000        1.80269403
    18.72556228       35.50766687        0.28611938        0.40332966        2.09000000        1.80038868
    18.79950397       35.56908142        0.28800551        0.40255408        2.09000000        1.79808675
    18.87322806       35.63049597        0.28989142        0.40177794        2.09000000        1.79578822
    18.94673734       35.69191052        0.29177711        0.40100122        2.09000000        1.79349305
    19.02003457       35.75332507        0.29366263        0.40022392        2.09000000        1.79120123
    19.09312242       35.81473961        0.29554798        0.39944600        2.09000000        1.78891274
    19.16600348       35.87615416        0.29743318        0.39866746        2.09000000        1.78662754
    19.23868030       35.93756871        0.29931825        0.39788827        2.09000000        1.78434562
    19.31115538       35.99898326        0.30120321        0.39710842        2.09000000        1.78206696
    19.38343113       36.06039781        0.30308807        0.39632788        2.09000000        1.77979153
    19.45550994       36.12181236        0.30497286        0.39554665        2.09000000        1.77751932
    19.52739410       36.18322691        0.30685759        0.39476471        2.09000000        1.77525029
    19.59908589       36.24464146        0.30874226        0.39398203        2.09000000        1.77298443
    19.67058751       36.30605601        0.31062690        0.39319861        2.09000000        1.77072172
    19.74190113       36.36747055        0.31251153        0.39241442        2.09000000        1.76846214
    19.81302884       36.42888510        0.31439614        0.39162946        2.09000000        1.76620566
    19.88397273       36.49029965        0.31628076        0.39084370        2.09000000        1.76395227
    19.95473480       36.55171420        0.31816540        0.39005714        2.09000000        1.76170194
    20.02531703       36.61312875        0.32005007        0.38926975        2.09000000        1.75945466
    20.09572135       36.67454330        0.32193478        0.38848153        2.09000000        1.75721040
    20.16594965       36.73595785        0.32381955        0.38769245        2.09000000        1.75496915
    20.23600377       36.79737240        0.32570437        0.38690250        2.09000000        1.75273089
    20.30588552       36.85878695        0.32758927        0.38611167        2.09000000        1.75049559
    20.37559667       36.92020149        0.32947425        0.38531995        2.09000000        1.74826324
    20.44513894       36.98161604        0.33135932        0.38452732        2.09000000        1.74603383
    20.51451405       37.04303059        0.33324449        0.38373377        2.09000000        1.74380732
    20.58372363       37.10444514        0.33512977        0.38293928        2.09000000        1.74158371
    20.65276931       37.16585969        0.33701517        0.38214384        2.09000000        1.73936297
    20.72165270       37.22727424        0.33890069        0.38134744        2.09000000        1.73714509
    20.79037534       37.28868879        0.34078634        0.38055006        2.09000000        1.73493005
    20.85893876       37.35010334        0.34267213        0.37975170        2.09000000        1.73271784
    20.92734445       37.41151789        0.34455806        0.37895234        2.09000000        1.73050843
    20.99559387       37.47293243        0.34644414        0.37815196        2.09000000        1.72830180
    21.06368847       37.53434698        0.34833039        0.37735055        2.09000000        1.72609795
    21.13162964       37.59576153        0.35021679        0.37654811        2.09000000        1.72389685
    21.19941877       37.65717608        0.35210336        0.37574462        2.09000000        1.72169849
    21.26705720       37.71859063        0.35399010        0.37494007        2.09000000        1.71950285
    21.33454625       37.78000518        0.35587703        0.37413444        2.09000000        1.71730991
    21.40188722       37.84141973        0.35776413        0.37332773        2.09000000        1.71511967
    21.46908139       37.90283428        0.35965142        0.37251992        2.09000000        1.71293210
    21.53613000       37.96424883        0.36153890        0.37171101        2.09000000        1.71074718
    21.60303428       38.02566337        0.36342657        0.37090097        2.09000000        1.70856491
    21.66979541       38.08707792        0.36531444        0.37008980        2.09000000        1.70638527
    21.73641458       38.14849247        0.36720251        0.36927749        2.09000000        1.70420823
    21.80289294       38.20990702        0.36909078        0.36846402        2.09000000        1.70203380
    21.86923163       38.27132157        0.37097926        0.36764939        2.09000000        1.69986194
    21.93543175       38.33273612        0.37286795        0.36683359        2.09000000        1.69769265
    22.00149439       38.39415067        0.37475685        0.36601660        2.09000000        1.69552592
    22.06742062       38.45556522        0.37664596        0.36519841        2.09000000        1.69336172
    22.13321148       38.51697977        0.37853529        0.36437901        2.09000000        1.69120005
    22.19886801       38.57839432        0.38042483        0.36355840        2.09000000        1.68904089
    22.26439121       38.63980886        0.38231459        0.36273656        2.09000000        1.68688423
    22.32978208       38.70122341        0.38420457        0.36191348        2.09000000        1.68473004
    22.39504159       38.76263796        0.38609477        0.36108915        2.09000000        1.68257833
    22.46017068       38.82405251        0.38798519        0.36026356        2.09000000        1.68042907
    22.52517031       38.88546706        0.38987583        0.35943670        2.09000000        1.67828226
    22.59004138       38.94688161        0.39176669        0.35860856        2.09000000        1.67613787
    22.65478481       39.00829616        0.39365778        0.35777913        2.09000000        1.67399590
    22.71940148       39.06971071        0.39554909        0.35694840        2.09000000        1.67185634
    22.78389225       39.13112526        0.39744062        0.35611636        2.09000000        1.66971916
    22.84825798       39.19253980        0.39933237        0.35528300        2.09000000        1.66758436
    22.91249952       39.25395435        0.40122434        0.35444832        2.09000000        1.66545193
    22.97661768       39.31536890        0.40311654        0.35361229        2.09000000        1.66332185
    23.04061328       39.37678345        0.40500896        0.35277492        2.09000000        1.66119411
    23.10448711       39.43819800        0.40690159        0.35193618        2.09000000        1.65906871
    23.16823995       39.49961255        0.40879445        0.35109608        2.09000000        1.65694562
    23.23187256       39.56102710        0.41068752        0.35025461        2.09000000        1.65482483
    23.29538571       39.62244165        0.41258082        0.34941174        2.09000000        1.65270634
