#  Theta paroi en deg Angle Choc en deg       Kp           Inverse Mach       Mach amont       Mach aval
     0.00000000       69.16030634        0.00000000        0.06542056        1.07000000
     1.89569841       69.16093153        0.00997142        0.05967069        1.07000000        1.06999205
     1.98703141       69.16180628        0.01084931        0.05916220        1.07000000        1.06998092
     2.13374755       69.16342972        0.01232501        0.05830663        1.07000000        1.06996028
     2.34057362       69.16630096        0.01453963        0.05702070        1.07000000        1.06992377
     2.59184975       69.17091914        0.01743639        0.05533509        1.07000000        1.06986506
     2.86939050       69.17778338        0.02089175        0.05331911        1.07000000        1.06977782
     3.16032422       69.18739279        0.02479445        0.05103509        1.07000000        1.06965573
     3.45700971       69.20024651        0.02906296        0.04852838        1.07000000        1.06949252
     3.75519382       69.21684365        0.03364057        0.04583003        1.07000000        1.06928191
     4.05256351       69.23768335        0.03848779        0.04296125        1.07000000        1.06901771
     4.29745355       69.25852304        0.04268835        0.04046550        1.07000000        1.06875377
     4.50753431       69.27936273        0.04644077        0.03822833        1.07000000        1.06849009
     4.69259889       69.30020243        0.04985968        0.03618364        1.07000000        1.06822667
     4.85869364       69.32104212        0.05301823        0.03428922        1.07000000        1.06796351
     5.00983786       69.34188181        0.05596643        0.03251623        1.07000000        1.06770061
     5.14885136       69.36272151        0.05874020        0.03084392        1.07000000        1.06743797
     5.27779560       69.38356120        0.06136637        0.02925682        1.07000000        1.06717560
     5.39822747       69.40440090        0.06386556        0.02774301        1.07000000        1.06691348
     5.51135422       69.42524059        0.06625407        0.02629310        1.07000000        1.06665163
     5.61813262       69.44608028        0.06854499        0.02489951        1.07000000        1.06639003
     5.71933499       69.46691998        0.07074904        0.02355606        1.07000000        1.06612870
     5.81559449       69.48775967        0.07287514        0.02225760        1.07000000        1.06586762
     5.90743743       69.50859936        0.07493078        0.02099980        1.07000000        1.06560681
     5.99530634       69.52943906        0.07692233        0.01977898        1.07000000        1.06534625
     6.07957728       69.55027875        0.07885527        0.01859198        1.07000000        1.06508596
     6.16057269       69.57111844        0.08073435        0.01743605        1.07000000        1.06482593
     6.23857142       69.59195814        0.08256370        0.01630881        1.07000000        1.06456616
     6.31381631       69.61279783        0.08434695        0.01520815        1.07000000        1.06430665
     6.38652036       69.63363753        0.08608734        0.01413222        1.07000000        1.06404739
     6.45687142       69.65447722        0.08778771        0.01307936        1.07000000        1.06378840
     6.52503612       69.67531691        0.08945062        0.01204810        1.07000000        1.06352967
     6.59116306       69.69615661        0.09107838        0.01103710        1.07000000        1.06327120
     6.65538536       69.71699630        0.09267306        0.01004518        1.07000000        1.06301299
     6.71782267       69.73783599        0.09423653        0.00907124        1.07000000        1.06275504
     6.77858318       69.75867569        0.09577049        0.00811430        1.07000000        1.06249735
     6.83776488       69.77951538        0.09727651        0.00717347        1.07000000        1.06223992
     6.89545689       69.80035507        0.09875601        0.00624791        1.07000000        1.06198275
     6.95174060       69.82119477        0.10021030        0.00533688        1.07000000        1.06172584
     7.00669041       69.84203446        0.10164057        0.00443967        1.07000000        1.06146919
     7.06037466       69.86287416        0.10304795        0.00355566        1.07000000        1.06121280
     7.11285622       69.88371385        0.10443345        0.00268424        1.07000000        1.06095667
     7.16419309       69.90455354        0.10579803        0.00182486        1.07000000        1.06070080
     7.21443887       69.92539324        0.10714257        0.00097702        1.07000000        1.06044519
     7.26364329       69.94623293        0.10846789        0.00014024        1.07000000        1.06018984
     7.31185244       69.96707262        0.10977478       -0.00068592        1.07000000        1.05993475
     7.35910927       69.98791232        0.11106393       -0.00150189        1.07000000        1.05967992
     7.40545378       70.00875201        0.11233604       -0.00230804        1.07000000        1.05942535
     7.45092334       70.02959171        0.11359171       -0.00310474        1.07000000        1.05917104
     7.49555288       70.05043140        0.11483156       -0.00389234        1.07000000        1.05891699
     7.53937516       70.07127109        0.11605613       -0.00467115        1.07000000        1.05866320
     7.58242090       70.09211079        0.11726595       -0.00544148        1.07000000        1.05840967
     7.62471893       70.11295048        0.11846152       -0.00620361        1.07000000        1.05815640
     7.66629645       70.13379017        0.11964329       -0.00695781        1.07000000        1.05790339
     7.70717903       70.15462987        0.12081173       -0.00770434        1.07000000        1.05765063
     7.74739081       70.17546956        0.12196723       -0.00844344        1.07000000        1.05739814
     7.78695462       70.19630925        0.12311021       -0.00917534        1.07000000        1.05714591
     7.82589199       70.21714895        0.12424103       -0.00990025        1.07000000        1.05689394
     7.86422336       70.23798864        0.12536006       -0.01061839        1.07000000        1.05664222
     7.90196808       70.25882834        0.12646763       -0.01132994        1.07000000        1.05639077
     7.93914451       70.27966803        0.12756406       -0.01203509        1.07000000        1.05613957
     7.97577007       70.30050772        0.12864968       -0.01273402        1.07000000        1.05588864
     8.01186136       70.32134742        0.12972476       -0.01342691        1.07000000        1.05563796
     8.04743412       70.34218711        0.13078959       -0.01411391        1.07000000        1.05538755
     8.08250340       70.36302680        0.13184445       -0.01479517        1.07000000        1.05513739
     8.11708349       70.38386650        0.13288957       -0.01547085        1.07000000        1.05488749
     8.15118806       70.40470619        0.13392522       -0.01614108        1.07000000        1.05463786
     8.18483015       70.42554588        0.13495162       -0.01680600        1.07000000        1.05438848
     8.21802221       70.44638558        0.13596901       -0.01746574        1.07000000        1.05413936
     8.25077615       70.46722527        0.13697758       -0.01812043        1.07000000        1.05389050
     8.28310337       70.48806497        0.13797756       -0.01877018        1.07000000        1.05364190
     8.31501479       70.50890466        0.13896914       -0.01941510        1.07000000        1.05339356
     8.34652087       70.52974435        0.13995251       -0.02005531        1.07000000        1.05314548
     8.37763163       70.55058405        0.14092785       -0.02069092        1.07000000        1.05289765
     8.40835669       70.57142374        0.14189534       -0.02132201        1.07000000        1.05265009
     8.43870530       70.59226343        0.14285516       -0.02194870        1.07000000        1.05240279
     8.46868631       70.61310313        0.14380745       -0.02257107        1.07000000        1.05215574
     8.49830826       70.63394282        0.14475239       -0.02318921        1.07000000        1.05190896
     8.52757935       70.65478252        0.14569012       -0.02380321        1.07000000        1.05166243
     8.55650747       70.67562221        0.14662079       -0.02441317        1.07000000        1.05141616
     8.58510024       70.69646190        0.14754454       -0.02501914        1.07000000        1.05117016
     8.61336494       70.71730160        0.14846150       -0.02562123        1.07000000        1.05092441
     8.64130866       70.73814129        0.14937181       -0.02621949        1.07000000        1.05067892
     8.66893818       70.75898098        0.15027560       -0.02681400        1.07000000        1.05043369
     8.69626009       70.77982068        0.15117298       -0.02740484        1.07000000        1.05018872
     8.72328069       70.80066037        0.15206408       -0.02799207        1.07000000        1.04994400
     8.75000611       70.82150006        0.15294902       -0.02857576        1.07000000        1.04969955
     8.77644225       70.84233976        0.15382789       -0.02915597        1.07000000        1.04945536
     8.80259484       70.86317945        0.15470082       -0.02973276        1.07000000        1.04921142
     8.82846938       70.88401915        0.15556790       -0.03030620        1.07000000        1.04896775
     8.85407121       70.90485884        0.15642924       -0.03087633        1.07000000        1.04872433
     8.87940551       70.92569853        0.15728493       -0.03144322        1.07000000        1.04848117
     8.90447727       70.94653823        0.15813507       -0.03200693        1.07000000        1.04823827
     8.92929135       70.96737792        0.15897975       -0.03256749        1.07000000        1.04799563
     8.95385243       70.98821761        0.15981907       -0.03312497        1.07000000        1.04775325
     8.97816504       71.00905731        0.16065310       -0.03367942        1.07000000        1.04751113
     9.00223362       71.02989700        0.16148193       -0.03423088        1.07000000        1.04726926
     9.02606243       71.05073669        0.16230565       -0.03477940        1.07000000        1.04702766
     9.04965561       71.07157639        0.16312433       -0.03532502        1.07000000        1.04678631
     9.07301720       71.09241608        0.16393806       -0.03586780        1.07000000        1.04654523
     9.09615109       71.11325578        0.16474690       -0.03640776        1.07000000        1.04630440
     9.11906109       71.13409547        0.16555094       -0.03694496        1.07000000        1.04606383
     9.14175089       71.15493516        0.16635023       -0.03747943        1.07000000        1.04582352
     9.16422405       71.17577486        0.16714485       -0.03801122        1.07000000        1.04558347
     9.18648406       71.19661455        0.16793488       -0.03854036        1.07000000        1.04534368
     9.20853430       71.21745424        0.16872037       -0.03906689        1.07000000        1.04510414
     9.23037807       71.23829394        0.16950138       -0.03959084        1.07000000        1.04486487
     9.25201857       71.25913363        0.17027799       -0.04011226        1.07000000        1.04462585
     9.27345892       71.27997333        0.17105024       -0.04063117        1.07000000        1.04438709
     9.29470213       71.30081302        0.17181821       -0.04114762        1.07000000        1.04414859
     9.31575117       71.32165271        0.17258195       -0.04166162        1.07000000        1.04391035
     9.33660892       71.34249241        0.17334151       -0.04217322        1.07000000        1.04367237
     9.35727816       71.36333210        0.17409695       -0.04268245        1.07000000        1.04343465
     9.37776165       71.38417179        0.17484832       -0.04318933        1.07000000        1.04319719
     9.39806200       71.40501149        0.17559568       -0.04369389        1.07000000        1.04295998
     9.41818186       71.42585118        0.17633907       -0.04419617        1.07000000        1.04272304
     9.43812372       71.44669087        0.17707856       -0.04469620        1.07000000        1.04248635
     9.45789005       71.46753057        0.17781417       -0.04519399        1.07000000        1.04224992
     9.47748325       71.48837026        0.17854597       -0.04568958        1.07000000        1.04201375
     9.49690569       71.50920996        0.17927400       -0.04618300        1.07000000        1.04177784
     9.51615963       71.53004965        0.17999830       -0.04667426        1.07000000        1.04154218
     9.53524733       71.55088934        0.18071891       -0.04716339        1.07000000        1.04130679
     9.55417095       71.57172904        0.18143590       -0.04765043        1.07000000        1.04107165
     9.57293263       71.59256873        0.18214928       -0.04813539        1.07000000        1.04083678
     9.59153445       71.61340842        0.18285911       -0.04861829        1.07000000        1.04060216
     9.60997845       71.63424812        0.18356543       -0.04909916        1.07000000        1.04036780
     9.62826661       71.65508781        0.18426827       -0.04957802        1.07000000        1.04013370
     9.64640087       71.67592750        0.18496767       -0.05005489        1.07000000        1.03989985
     9.66438313       71.69676720        0.18566368       -0.05052980        1.07000000        1.03966627
     9.68221524       71.71760689        0.18635633       -0.05100276        1.07000000        1.03943294
     9.69989902       71.73844659        0.18704565       -0.05147380        1.07000000        1.03919988
     9.71743624       71.75928628        0.18773169       -0.05194293        1.07000000        1.03896707
     9.73482864       71.78012597        0.18841447       -0.05241018        1.07000000        1.03873452
     9.75207792       71.80096567        0.18909403       -0.05287556        1.07000000        1.03850223
     9.76918573       71.82180536        0.18977040       -0.05333909        1.07000000        1.03827019
     9.78615371       71.84264505        0.19044362       -0.05380079        1.07000000        1.03803842
     9.80298344       71.86348475        0.19111372       -0.05426068        1.07000000        1.03780690
     9.81967648       71.88432444        0.19178073       -0.05471878        1.07000000        1.03757565
     9.83623436       71.90516413        0.19244468       -0.05517510        1.07000000        1.03734465
     9.85265858       71.92600383        0.19310560       -0.05562966        1.07000000        1.03711391
     9.86895059       71.94684352        0.19376352       -0.05608247        1.07000000        1.03688342
     9.88511184       71.96768322        0.19441847       -0.05653356        1.07000000        1.03665320
     9.90114371       71.98852291        0.19507048       -0.05698294        1.07000000        1.03642324
     9.91704760       72.00936260        0.19571957       -0.05743062        1.07000000        1.03619353
     9.93282485       72.03020230        0.19636578       -0.05787662        1.07000000        1.03596408
     9.94847679       72.05104199        0.19700913       -0.05832096        1.07000000        1.03573489
     9.96400469       72.07188168        0.19764964       -0.05876364        1.07000000        1.03550596
     9.97940986       72.09272138        0.19828734       -0.05920469        1.07000000        1.03527729
     9.99469352       72.11356107        0.19892227       -0.05964411        1.07000000        1.03504887
    10.00985691       72.13440077        0.19955443       -0.06008193        1.07000000        1.03482072
    10.02490121       72.15524046        0.20018386       -0.06051814        1.07000000        1.03459282
    10.03982761       72.17608015        0.20081059       -0.06095278        1.07000000        1.03436518
    10.05463726       72.19691985        0.20143462       -0.06138585        1.07000000        1.03413780
    10.06933129       72.21775954        0.20205600       -0.06181736        1.07000000        1.03391068
    10.08391082       72.23859923        0.20267473       -0.06224733        1.07000000        1.03368382
    10.09837692       72.25943893        0.20329085       -0.06267576        1.07000000        1.03345721
    10.11273070       72.28027862        0.20390437       -0.06310268        1.07000000        1.03323087
    10.12697317       72.30111831        0.20451532       -0.06352809        1.07000000        1.03300478
    10.14110539       72.32195801        0.20512371       -0.06395200        1.07000000        1.03277895
    10.15512836       72.34279770        0.20572958       -0.06437443        1.07000000        1.03255338
    10.16904308       72.36363740        0.20633293       -0.06479538        1.07000000        1.03232807
    10.18285053       72.38447709        0.20693379       -0.06521487        1.07000000        1.03210301
    10.19655167       72.40531678        0.20753217       -0.06563291        1.07000000        1.03187821
    10.21014743       72.42615648        0.20812811       -0.06604951        1.07000000        1.03165368
    10.22363877       72.44699617        0.20872161       -0.06646468        1.07000000        1.03142940
    10.23702656       72.46783586        0.20931270       -0.06687843        1.07000000        1.03120538
    10.25031173       72.48867556        0.20990139       -0.06729077        1.07000000        1.03098162
    10.26349514       72.50951525        0.21048770       -0.06770170        1.07000000        1.03075811
    10.27657767       72.53035494        0.21107166       -0.06811125        1.07000000        1.03053487
    10.28956016       72.55119464        0.21165327       -0.06851941        1.07000000        1.03031188
    10.30244344       72.57203433        0.21223255       -0.06892621        1.07000000        1.03008915
    10.31522835       72.59287403        0.21280953       -0.06933164        1.07000000        1.02986668
    10.32791568       72.61371372        0.21338422       -0.06973571        1.07000000        1.02964447
    10.34050624       72.63455341        0.21395663       -0.07013844        1.07000000        1.02942252
    10.35300082       72.65539311        0.21452678       -0.07053984        1.07000000        1.02920082
    10.36540016       72.67623280        0.21509469       -0.07093991        1.07000000        1.02897938
    10.37770504       72.69707249        0.21566037       -0.07133865        1.07000000        1.02875821
    10.38991618       72.71791219        0.21622383       -0.07173609        1.07000000        1.02853729
    10.40203436       72.73875188        0.21678511       -0.07213223        1.07000000        1.02831662
    10.41406026       72.75959158        0.21734420       -0.07252707        1.07000000        1.02809622
    10.42599459       72.78043127        0.21790112       -0.07292062        1.07000000        1.02787608
    10.43783807       72.80127096        0.21845589       -0.07331290        1.07000000        1.02765619
    10.44959137       72.82211066        0.21900852       -0.07370390        1.07000000        1.02743656
    10.46125517       72.84295035        0.21955903       -0.07409364        1.07000000        1.02721719
    10.47283014       72.86379004        0.22010742       -0.07448213        1.07000000        1.02699808
    10.48431695       72.88462974        0.22065372       -0.07486936        1.07000000        1.02677923
    10.49571621       72.90546943        0.22119794       -0.07525536        1.07000000        1.02656064
