#  Theta paroi en deg Angle Choc en deg       Kp           Inverse Mach       Mach amont       Mach aval
     0.00000000       27.03569179        0.00000000        0.54545455        2.20000000
     1.91075242       27.03758072        0.00659646        0.54251759        2.20000000        2.19990369
     2.29604388       27.04022366        0.00898487        0.54146069        2.20000000        2.19976894
     2.71473384       27.04512866        0.01188383        0.54018240        2.20000000        2.19951893
     3.16832369       27.05380374        0.01535370        0.53865875        2.20000000        2.19907690
     3.63739139       27.06775695        0.01927702        0.53694419        2.20000000        2.19836638
     4.11028493       27.08849630        0.02355584        0.53508393        2.20000000        2.19731128
     4.58228592       27.11752984        0.02813322        0.53310473        2.20000000        2.19583619
     5.05233897       27.15636561        0.03298231        0.53101992        2.20000000        2.19386666
     5.52110277       27.20651163        0.03809574        0.52883428        2.20000000        2.19132957
     5.98999319       27.26947593        0.04347885        0.52654712        2.20000000        2.18815347
     6.37986118       27.33244024        0.04815364        0.52457195        2.20000000        2.18498786
     6.71843470       27.39540455        0.05235688        0.52280451        2.20000000        2.18183262
     7.02069126       27.45836886        0.05622023        0.52118686        2.20000000        2.17868764
     7.29571612       27.52133317        0.05982535        0.51968311        2.20000000        2.17555280
     7.54946965       27.58429747        0.06322683        0.51826927        2.20000000        2.17242799
     7.78609044       27.64726178        0.06646312        0.51692845        2.20000000        2.16931310
     8.00857870       27.71022609        0.06956248        0.51564825        2.20000000        2.16620802
     8.21918430       27.77319040        0.07254633        0.51441925        2.20000000        2.16311263
     8.41964139       27.83615471        0.07543136        0.51323414        2.20000000        2.16002684
     8.61131697       27.89911902        0.07823083        0.51208709        2.20000000        2.15695054
     8.79530941       27.96208332        0.08095546        0.51097338        2.20000000        2.15388363
     8.97251548       28.02504763        0.08361409        0.50988913        2.20000000        2.15082599
     9.14367767       28.08801194        0.08621407        0.50883113        2.20000000        2.14777754
     9.30941822       28.15097625        0.08876159        0.50779663        2.20000000        2.14473818
     9.47026416       28.21394056        0.09126194        0.50678331        2.20000000        2.14170780
     9.62666612       28.27690487        0.09371963        0.50578919        2.20000000        2.13868631
     9.77901267       28.33986917        0.09613860        0.50481253        2.20000000        2.13567362
     9.92764141       28.40283348        0.09852226        0.50385182        2.20000000        2.13266962
    10.07284761       28.46579779        0.10087361        0.50290574        2.20000000        2.12967424
    10.21489122       28.52876210        0.10319530        0.50197311        2.20000000        2.12668737
    10.35400229       28.59172641        0.10548969        0.50105289        2.20000000        2.12370893
    10.49038551       28.65469071        0.10775887        0.50014416        2.20000000        2.12073883
    10.62422387       28.71765502        0.11000473        0.49924607        2.20000000        2.11777699
    10.75568165       28.78061933        0.11222894        0.49835789        2.20000000        2.11482330
    10.88490699       28.84358364        0.11443304        0.49747891        2.20000000        2.11187770
    11.01203390       28.90654795        0.11661841        0.49660854        2.20000000        2.10894010
    11.13718406       28.96951226        0.11878631        0.49574620        2.20000000        2.10601041
    11.26046835       29.03247656        0.12093788        0.49489138        2.20000000        2.10308855
    11.38198809       29.09544087        0.12307417        0.49404362        2.20000000        2.10017445
    11.50183609       29.15840518        0.12519615        0.49320247        2.20000000        2.09726801
    11.62009764       29.22136949        0.12730469        0.49236754        2.20000000        2.09436918
    11.73685131       29.28433380        0.12940062        0.49153847        2.20000000        2.09147786
    11.85216963       29.34729810        0.13148467        0.49071490        2.20000000        2.08859398
    11.96611974       29.41026241        0.13355756        0.48989653        2.20000000        2.08571747
    12.07876388       29.47322672        0.13561992        0.48908305        2.20000000        2.08284825
    12.19015986       29.53619103        0.13767235        0.48827420        2.20000000        2.07998626
    12.30036156       29.59915534        0.13971541        0.48746972        2.20000000        2.07713140
    12.40941916       29.66211965        0.14174961        0.48666937        2.20000000        2.07428363
    12.51737958       29.72508395        0.14377546        0.48587293        2.20000000        2.07144286
    12.62428670       29.78804826        0.14579339        0.48508018        2.20000000        2.06860903
    12.73018165       29.85101257        0.14780383        0.48429092        2.20000000        2.06578206
    12.83510305       29.91397688        0.14980718        0.48350498        2.20000000        2.06296190
    12.93908718       29.97694119        0.15180382        0.48272218        2.20000000        2.06014847
    13.04216819       30.03990550        0.15379409        0.48194235        2.20000000        2.05734171
    13.14437826       30.10286980        0.15577832        0.48116533        2.20000000        2.05454156
    13.24574773       30.16583411        0.15775683        0.48039098        2.20000000        2.05174794
    13.34630532       30.22879842        0.15972990        0.47961916        2.20000000        2.04896081
    13.44607814       30.29176273        0.16169783        0.47884973        2.20000000        2.04618008
    13.54509187       30.35472704        0.16366085        0.47808257        2.20000000        2.04340571
    13.64337085       30.41769134        0.16561924        0.47731755        2.20000000        2.04063764
    13.74093817       30.48065565        0.16757321        0.47655458        2.20000000        2.03787579
    13.83781577       30.54361996        0.16952299        0.47579353        2.20000000        2.03512012
    13.93402449       30.60658427        0.17146879        0.47503430        2.20000000        2.03237057
    14.02958415       30.66954858        0.17341080        0.47427679        2.20000000        2.02962707
    14.12451366       30.73251289        0.17534923        0.47352092        2.20000000        2.02688958
    14.21883100       30.79547719        0.17728425        0.47276658        2.20000000        2.02415803
    14.31255333       30.85844150        0.17921603        0.47201370        2.20000000        2.02143237
    14.40569706       30.92140581        0.18114472        0.47126219        2.20000000        2.01871255
    14.49827781       30.98437012        0.18307050        0.47051198        2.20000000        2.01599851
    14.59031057       31.04733443        0.18499350        0.46976297        2.20000000        2.01329020
    14.68180966       31.11029873        0.18691387        0.46901512        2.20000000        2.01058756
    14.77278876       31.17326304        0.18883174        0.46826833        2.20000000        2.00789055
    14.86326100       31.23622735        0.19074723        0.46752255        2.20000000        2.00519911
    14.95323898       31.29919166        0.19266048        0.46677772        2.20000000        2.00251319
    15.04273478       31.36215597        0.19457159        0.46603376        2.20000000        1.99983275
    15.13175996       31.42512028        0.19648069        0.46529062        2.20000000        1.99715773
    15.22032565       31.48808458        0.19838787        0.46454825        2.20000000        1.99448808
    15.30844255       31.55104889        0.20029323        0.46380658        2.20000000        1.99182376
    15.39612093       31.61401320        0.20219688        0.46306556        2.20000000        1.98916472
    15.48337069       31.67697751        0.20409891        0.46232514        2.20000000        1.98651092
    15.57020133       31.73994182        0.20599941        0.46158528        2.20000000        1.98386230
    15.65662202       31.80290612        0.20789846        0.46084592        2.20000000        1.98121882
    15.74264159       31.86587043        0.20979615        0.46010701        2.20000000        1.97858043
    15.82826855       31.92883474        0.21169256        0.45936851        2.20000000        1.97594710
    15.91351109       31.99179905        0.21358775        0.45863038        2.20000000        1.97331877
    15.99837714       32.05476336        0.21548181        0.45789257        2.20000000        1.97069541
    16.08287434       32.11772767        0.21737480        0.45715505        2.20000000        1.96807697
    16.16701007       32.18069197        0.21926679        0.45641777        2.20000000        1.96546341
    16.25079144       32.24365628        0.22115784        0.45568069        2.20000000        1.96285469
    16.33422537       32.30662059        0.22304802        0.45494378        2.20000000        1.96025076
    16.41731849       32.36958490        0.22493738        0.45420700        2.20000000        1.95765159
    16.50007727       32.43254921        0.22682599        0.45347031        2.20000000        1.95505714
    16.58250791       32.49551352        0.22871389        0.45273368        2.20000000        1.95246736
    16.66461647       32.55847782        0.23060113        0.45199708        2.20000000        1.94988221
    16.74640878       32.62144213        0.23248778        0.45126048        2.20000000        1.94730167
    16.82789051       32.68440644        0.23437387        0.45052383        2.20000000        1.94472568
    16.90906713       32.74737075        0.23625946        0.44978712        2.20000000        1.94215421
    16.98994397       32.81033506        0.23814458        0.44905031        2.20000000        1.93958723
    17.07052616       32.87329936        0.24002928        0.44831337        2.20000000        1.93702470
    17.15081872       32.93626367        0.24191361        0.44757627        2.20000000        1.93446658
    17.23082650       32.99922798        0.24379760        0.44683899        2.20000000        1.93191283
    17.31055419       33.06219229        0.24568129        0.44610149        2.20000000        1.92936342
    17.39000638       33.12515660        0.24756471        0.44536376        2.20000000        1.92681832
    17.46918750       33.18812091        0.24944791        0.44462576        2.20000000        1.92427749
    17.54810186       33.25108521        0.25133092        0.44388747        2.20000000        1.92174089
    17.62675366       33.31404952        0.25321377        0.44314887        2.20000000        1.91920849
    17.70514696       33.37701383        0.25509649        0.44240993        2.20000000        1.91668027
    17.78328572       33.43997814        0.25697911        0.44167063        2.20000000        1.91415618
    17.86117380       33.50294245        0.25886166        0.44093094        2.20000000        1.91163619
    17.93881494       33.56590675        0.26074417        0.44019084        2.20000000        1.90912027
    18.01621279       33.62887106        0.26262667        0.43945032        2.20000000        1.90660839
    18.09337090       33.69183537        0.26450918        0.43870934        2.20000000        1.90410053
    18.17029270       33.75479968        0.26639173        0.43796788        2.20000000        1.90159663
    18.24698157       33.81776399        0.26827434        0.43722594        2.20000000        1.89909669
    18.32344079       33.88072830        0.27015704        0.43648347        2.20000000        1.89660065
    18.39967354       33.94369260        0.27203984        0.43574048        2.20000000        1.89410851
    18.47568294       34.00665691        0.27392278        0.43499693        2.20000000        1.89162022
    18.55147201       34.06962122        0.27580586        0.43425280        2.20000000        1.88913576
    18.62704370       34.13258553        0.27768911        0.43350809        2.20000000        1.88665510
    18.70240090       34.19554984        0.27957255        0.43276276        2.20000000        1.88417820
    18.77754641       34.25851415        0.28145620        0.43201680        2.20000000        1.88170505
    18.85248297       34.32147845        0.28334007        0.43127020        2.20000000        1.87923561
    18.92721327       34.38444276        0.28522418        0.43052293        2.20000000        1.87676986
    19.00173989       34.44740707        0.28710856        0.42977498        2.20000000        1.87430777
    19.07606540       34.51037138        0.28899320        0.42902633        2.20000000        1.87184931
    19.15019226       34.57333569        0.29087813        0.42827696        2.20000000        1.86939446
    19.22412292       34.63629999        0.29276337        0.42752686        2.20000000        1.86694319
    19.29785974       34.69926430        0.29464892        0.42677602        2.20000000        1.86449547
    19.37140503       34.76222861        0.29653480        0.42602440        2.20000000        1.86205127
    19.44476106       34.82519292        0.29842102        0.42527201        2.20000000        1.85961059
    19.51793002       34.88815723        0.30030760        0.42451883        2.20000000        1.85717338
    19.59091409       34.95112154        0.30219454        0.42376483        2.20000000        1.85473962
    19.66371538       35.01408584        0.30408186        0.42301001        2.20000000        1.85230929
    19.73633593       35.07705015        0.30596957        0.42225435        2.20000000        1.84988237
    19.80877777       35.14001446        0.30785768        0.42149783        2.20000000        1.84745883
    19.88104287       35.20297877        0.30974619        0.42074045        2.20000000        1.84503865
    19.95313317       35.26594308        0.31163512        0.41998218        2.20000000        1.84262180
    20.02505054       35.32890738        0.31352447        0.41922301        2.20000000        1.84020826
    20.09679682       35.39187169        0.31541426        0.41846293        2.20000000        1.83779801
    20.16837384       35.45483600        0.31730449        0.41770193        2.20000000        1.83539103
    20.23978334       35.51780031        0.31919517        0.41693999        2.20000000        1.83298729
    20.31102707       35.58076462        0.32108631        0.41617710        2.20000000        1.83058677
    20.38210671       35.64372893        0.32297790        0.41541325        2.20000000        1.82818946
    20.45302391       35.70669323        0.32486997        0.41464842        2.20000000        1.82579532
    20.52378031       35.76965754        0.32676252        0.41388259        2.20000000        1.82340434
    20.59437748       35.83262185        0.32865554        0.41311577        2.20000000        1.82101650
    20.66481700       35.89558616        0.33054905        0.41234793        2.20000000        1.81863178
    20.73510037       35.95855047        0.33244306        0.41157906        2.20000000        1.81625015
    20.80522908       36.02151478        0.33433756        0.41080916        2.20000000        1.81387160
    20.87520461       36.08447908        0.33623256        0.41003820        2.20000000        1.81149610
    20.94502839       36.14744339        0.33812807        0.40926618        2.20000000        1.80912364
    21.01470181       36.21040770        0.34002408        0.40849309        2.20000000        1.80675420
    21.08422626       36.27337201        0.34192061        0.40771891        2.20000000        1.80438775
    21.15360307       36.33633632        0.34381766        0.40694363        2.20000000        1.80202429
    21.22283359       36.39930062        0.34571523        0.40616724        2.20000000        1.79966378
    21.29191908       36.46226493        0.34761331        0.40538973        2.20000000        1.79730621
    21.36086084       36.52522924        0.34951192        0.40461108        2.20000000        1.79495157
    21.42966009       36.58819355        0.35141106        0.40383130        2.20000000        1.79259983
    21.49831807       36.65115786        0.35331073        0.40305036        2.20000000        1.79025098
    21.56683598       36.71412217        0.35521093        0.40226825        2.20000000        1.78790500
    21.63521497       36.77708647        0.35711166        0.40148497        2.20000000        1.78556187
    21.70345622       36.84005078        0.35901292        0.40070050        2.20000000        1.78322157
    21.77156085       36.90301509        0.36091472        0.39991483        2.20000000        1.78088409
    21.83952996       36.96597940        0.36281706        0.39912796        2.20000000        1.77854941
    21.90736464       37.02894371        0.36471993        0.39833987        2.20000000        1.77621751
    21.97506596       37.09190801        0.36662334        0.39755055        2.20000000        1.77388838
    22.04263497       37.15487232        0.36852729        0.39675999        2.20000000        1.77156200
    22.11007270       37.21783663        0.37043177        0.39596818        2.20000000        1.76923836
    22.17738016       37.28080094        0.37233679        0.39517511        2.20000000        1.76691743
    22.24455832       37.34376525        0.37424235        0.39438078        2.20000000        1.76459921
    22.31160817       37.40672956        0.37614845        0.39358516        2.20000000        1.76228367
    22.37853067       37.46969386        0.37805508        0.39278825        2.20000000        1.75997080
    22.44532674       37.53265817        0.37996225        0.39199005        2.20000000        1.75766059
    22.51199730       37.59562248        0.38186996        0.39119054        2.20000000        1.75535302
    22.57854326       37.65858679        0.38377819        0.39038970        2.20000000        1.75304808
    22.64496551       37.72155110        0.38568696        0.38958754        2.20000000        1.75074575
    22.71126490       37.78451540        0.38759627        0.38878405        2.20000000        1.74844602
    22.77744231       37.84747971        0.38950610        0.38797920        2.20000000        1.74614887
    22.84349856       37.91044402        0.39141646        0.38717300        2.20000000        1.74385428
    22.90943449       37.97340833        0.39332734        0.38636543        2.20000000        1.74156225
    22.97525090       38.03637264        0.39523875        0.38555649        2.20000000        1.73927277
    23.04094859       38.09933695        0.39715068        0.38474616        2.20000000        1.73698580
    23.10652833       38.16230125        0.39906313        0.38393444        2.20000000        1.73470135
    23.17199090       38.22526556        0.40097610        0.38312131        2.20000000        1.73241941
    23.23733704       38.28822987        0.40288959        0.38230678        2.20000000        1.73013994
    23.30256751       38.35119418        0.40480358        0.38149082        2.20000000        1.72786295
