#  Theta paroi en deg Angle Choc en deg       Kp           Inverse Mach       Mach amont       Mach aval
     0.00000000       30.16636951        0.00000000        0.49748744        1.99000000
     2.00342204       30.16816452        0.00744033        0.49414812        1.99000000        1.98991911
     2.40056518       30.17067605        0.01009653        0.49296107        1.99000000        1.98980593
     2.83514833       30.17533716        0.01334241        0.49151402        1.99000000        1.98959593
     3.30746503       30.18358091        0.01724153        0.48978076        1.99000000        1.98922463
     3.79651240       30.19684034        0.02165795        0.48782400        1.99000000        1.98862773
     4.28957696       30.21654850        0.02647674        0.48569655        1.99000000        1.98774122
     4.78132679       30.24413845        0.03162884        0.48343043        1.99000000        1.98650156
     5.27034665       30.28104324        0.03707904        0.48104240        1.99000000        1.98484588
     5.75706720       30.32869593        0.04281404        0.47853945        1.99000000        1.98271225
     6.24274454       30.38852956        0.04883472        0.47592226        1.99000000        1.98003994
     6.64554715       30.44836319        0.05404743        0.47366461        1.99000000        1.97737503
     6.99453079       30.50819682        0.05872090        0.47164682        1.99000000        1.97471746
     7.30539769       30.56803045        0.06300476        0.46980230        1.99000000        1.97206716
     7.58767613       30.62786408        0.06699193        0.46808973        1.99000000        1.96942406
     7.84761880       30.68769771        0.07074459        0.46648146        1.99000000        1.96678809
     8.08956822       30.74753134        0.07430660        0.46495801        1.99000000        1.96415919
     8.31667299       30.80736497        0.07771019        0.46350506        1.99000000        1.96153728
     8.53129465       30.86719860        0.08097984        0.46211174        1.99000000        1.95892232
     8.73525364       30.92703223        0.08413461        0.46076958        1.99000000        1.95631422
     8.92998522       30.98686587        0.08718966        0.45947183        1.99000000        1.95371293
     9.11664266       31.04669950        0.09015728        0.45821306        1.99000000        1.95111839
     9.29616772       31.10653313        0.09304758        0.45698875        1.99000000        1.94853054
     9.46934013       31.16636676        0.09586900        0.45579516        1.99000000        1.94594931
     9.63681349       31.22620039        0.09862862        0.45462914        1.99000000        1.94337464
     9.79914135       31.28603402        0.10133252        0.45348799        1.99000000        1.94080648
     9.95679712       31.34586765        0.10398590        0.45236940        1.99000000        1.93824476
    10.11018903       31.40570128        0.10659325        0.45127136        1.99000000        1.93568943
    10.25967172       31.46553491        0.10915851        0.45019211        1.99000000        1.93314043
    10.40555551       31.52536854        0.11168514        0.44913011        1.99000000        1.93059770
    10.54811349       31.58520217        0.11417619        0.44808401        1.99000000        1.92806119
    10.68758745       31.64503580        0.11663437        0.44705260        1.99000000        1.92553085
    10.82419248       31.70486943        0.11906210        0.44603478        1.99000000        1.92300661
    10.95812092       31.76470306        0.12146154        0.44502959        1.99000000        1.92048842
    11.08954543       31.82453669        0.12383464        0.44403616        1.99000000        1.91797624
    11.21862172       31.88437032        0.12618318        0.44305370        1.99000000        1.91547000
    11.34549067       31.94420395        0.12850874        0.44208148        1.99000000        1.91296966
    11.47028019       32.00403758        0.13081278        0.44111885        1.99000000        1.91047517
    11.59310686       32.06387121        0.13309664        0.44016522        1.99000000        1.90798646
    11.71407717       32.12370484        0.13536152        0.43922003        1.99000000        1.90550350
    11.83328873       32.18353848        0.13760854        0.43828279        1.99000000        1.90302624
    11.95083122       32.24337211        0.13983873        0.43735302        1.99000000        1.90055462
    12.06678725       32.30320574        0.14205302        0.43643029        1.99000000        1.89808859
    12.18123309       32.36303937        0.14425230        0.43551422        1.99000000        1.89562811
    12.29423936       32.42287300        0.14643738        0.43460443        1.99000000        1.89317313
    12.40587148       32.48270663        0.14860900        0.43370058        1.99000000        1.89072361
    12.51619030       32.54254026        0.15076787        0.43280235        1.99000000        1.88827949
    12.62525244       32.60237389        0.15291462        0.43190945        1.99000000        1.88584074
    12.73311071       32.66220752        0.15504988        0.43102158        1.99000000        1.88340730
    12.83981445       32.72204115        0.15717420        0.43013850        1.99000000        1.88097913
    12.94540982       32.78187478        0.15928812        0.42925995        1.99000000        1.87855619
    13.04994010       32.84170841        0.16139213        0.42838571        1.99000000        1.87613844
    13.15344589       32.90154204        0.16348670        0.42751556        1.99000000        1.87372582
    13.25596537       32.96137567        0.16557226        0.42664930        1.99000000        1.87131830
    13.35753445       33.02120930        0.16764924        0.42578673        1.99000000        1.86891584
    13.45818699       33.08104293        0.16971801        0.42492767        1.99000000        1.86651839
    13.55795494       33.14087656        0.17177894        0.42407195        1.99000000        1.86412592
    13.65686848       33.20071019        0.17383237        0.42321941        1.99000000        1.86173837
    13.75495614       33.26054382        0.17587864        0.42236989        1.99000000        1.85935572
    13.85224493       33.32037745        0.17791806        0.42152325        1.99000000        1.85697792
    13.94876049       33.38021109        0.17995090        0.42067934        1.99000000        1.85460493
    14.04452709       33.44004472        0.18197746        0.41983804        1.99000000        1.85223672
    14.13956781       33.49987835        0.18399798        0.41899921        1.99000000        1.84987324
    14.23390459       33.55971198        0.18601273        0.41816274        1.99000000        1.84751446
    14.32755828       33.61954561        0.18802194        0.41732852        1.99000000        1.84516034
    14.42054877       33.67937924        0.19002583        0.41649642        1.99000000        1.84281084
    14.51289499       33.73921287        0.19202461        0.41566636        1.99000000        1.84046592
    14.60461499       33.79904650        0.19401850        0.41483822        1.99000000        1.83812555
    14.69572601       33.85888013        0.19600767        0.41401192        1.99000000        1.83578970
    14.78624453       33.91871376        0.19799233        0.41318735        1.99000000        1.83345832
    14.87618629       33.97854739        0.19997265        0.41236444        1.99000000        1.83113139
    14.96556635       34.03838102        0.20194878        0.41154309        1.99000000        1.82880886
    15.05439913       34.09821465        0.20392091        0.41072324        1.99000000        1.82649071
    15.14269844       34.15804828        0.20588917        0.40990479        1.99000000        1.82417689
    15.23047753       34.21788191        0.20785371        0.40908767        1.99000000        1.82186738
    15.31774908       34.27771554        0.20981469        0.40827182        1.99000000        1.81956215
    15.40452529       34.33754917        0.21177222        0.40745716        1.99000000        1.81726115
    15.49081786       34.39738280        0.21372644        0.40664362        1.99000000        1.81496436
    15.57663804       34.45721643        0.21567747        0.40583115        1.99000000        1.81267174
    15.66199663       34.51705006        0.21762544        0.40501967        1.99000000        1.81038327
    15.74690405       34.57688369        0.21957045        0.40420913        1.99000000        1.80809890
    15.83137029       34.63671733        0.22151261        0.40339948        1.99000000        1.80581862
    15.91540499       34.69655096        0.22345203        0.40259065        1.99000000        1.80354239
    15.99901745       34.75638459        0.22538880        0.40178259        1.99000000        1.80127017
    16.08221658       34.81621822        0.22732303        0.40097525        1.99000000        1.79900195
    16.16501105       34.87605185        0.22925481        0.40016858        1.99000000        1.79673768
    16.24740918       34.93588548        0.23118422        0.39936252        1.99000000        1.79447734
    16.32941898       34.99571911        0.23311135        0.39855704        1.99000000        1.79222091
    16.41104822       35.05555274        0.23503628        0.39775209        1.99000000        1.78996834
    16.49230440       35.11538637        0.23695910        0.39694761        1.99000000        1.78771962
    16.57319475       35.17522000        0.23887987        0.39614357        1.99000000        1.78547471
    16.65372629       35.23505363        0.24079867        0.39533993        1.99000000        1.78323360
    16.73390577       35.29488726        0.24271558        0.39453664        1.99000000        1.78099624
    16.81373975       35.35472089        0.24463065        0.39373367        1.99000000        1.77876261
    16.89323459       35.41455452        0.24654396        0.39293098        1.99000000        1.77653269
    16.97239639       35.47438815        0.24845556        0.39212852        1.99000000        1.77430645
    17.05123113       35.53422178        0.25036552        0.39132627        1.99000000        1.77208386
    17.12974457       35.59405541        0.25227390        0.39052418        1.99000000        1.76986489
    17.20794227       35.65388904        0.25418075        0.38972223        1.99000000        1.76764953
    17.28582966       35.71372267        0.25608613        0.38892037        1.99000000        1.76543774
    17.36341200       35.77355630        0.25799009        0.38811858        1.99000000        1.76322950
    17.44069438       35.83338994        0.25989267        0.38731683        1.99000000        1.76102479
    17.51768173       35.89322357        0.26179394        0.38651508        1.99000000        1.75882358
    17.59437886       35.95305720        0.26369393        0.38571330        1.99000000        1.75662584
    17.67079043       36.01289083        0.26559270        0.38491147        1.99000000        1.75443155
    17.74692098       36.07272446        0.26749027        0.38410954        1.99000000        1.75224069
    17.82277489       36.13255809        0.26938671        0.38330751        1.99000000        1.75005324
    17.89835644       36.19239172        0.27128205        0.38250533        1.99000000        1.74786916
    17.97366979       36.25222535        0.27317632        0.38170299        1.99000000        1.74568845
    18.04871898       36.31205898        0.27506957        0.38090045        1.99000000        1.74351106
    18.12350795       36.37189261        0.27696183        0.38009769        1.99000000        1.74133699
    18.19804050       36.43172624        0.27885314        0.37929468        1.99000000        1.73916621
    18.27232038       36.49155987        0.28074354        0.37849141        1.99000000        1.73699869
    18.34635118       36.55139350        0.28263305        0.37768784        1.99000000        1.73483442
    18.42013646       36.61122713        0.28452170        0.37688395        1.99000000        1.73267338
    18.49367965       36.67106076        0.28640954        0.37607972        1.99000000        1.73051553
    18.56698407       36.73089439        0.28829659        0.37527512        1.99000000        1.72836087
    18.64005300       36.79072802        0.29018287        0.37447014        1.99000000        1.72620936
    18.71288961       36.85056165        0.29206843        0.37366475        1.99000000        1.72406099
    18.78549700       36.91039528        0.29395327        0.37285893        1.99000000        1.72191575
    18.85787818       36.97022891        0.29583743        0.37205266        1.99000000        1.71977360
    18.93003610       37.03006255        0.29772094        0.37124592        1.99000000        1.71763452
    19.00197363       37.08989618        0.29960382        0.37043869        1.99000000        1.71549851
    19.07369357       37.14972981        0.30148609        0.36963095        1.99000000        1.71336553
    19.14519866       37.20956344        0.30336777        0.36882268        1.99000000        1.71123557
    19.21649154       37.26939707        0.30524889        0.36801385        1.99000000        1.70910861
    19.28757484       37.32923070        0.30712947        0.36720446        1.99000000        1.70698463
    19.35845108       37.38906433        0.30900953        0.36639449        1.99000000        1.70486361
    19.42912275       37.44889796        0.31088908        0.36558390        1.99000000        1.70274553
    19.49959228       37.50873159        0.31276816        0.36477270        1.99000000        1.70063038
    19.56986202       37.56856522        0.31464677        0.36396085        1.99000000        1.69851813
    19.63993429       37.62839885        0.31652493        0.36314835        1.99000000        1.69640877
    19.70981134       37.68823248        0.31840266        0.36233517        1.99000000        1.69430228
    19.77949538       37.74806611        0.32027999        0.36152130        1.99000000        1.69219864
    19.84898857       37.80789974        0.32215691        0.36070672        1.99000000        1.69009784
    19.91829303       37.86773337        0.32403346        0.35989142        1.99000000        1.68799985
    19.98741079       37.92756700        0.32590964        0.35907538        1.99000000        1.68590466
    20.05634389       37.98740063        0.32778546        0.35825858        1.99000000        1.68381225
    20.12509430       38.04723426        0.32966095        0.35744102        1.99000000        1.68172261
    20.19366394       38.10706789        0.33153612        0.35662266        1.99000000        1.67963572
    20.26205470       38.16690152        0.33341097        0.35580351        1.99000000        1.67755156
    20.33026842       38.22673516        0.33528553        0.35498353        1.99000000        1.67547011
    20.39830691       38.28656879        0.33715980        0.35416273        1.99000000        1.67339137
    20.46617194       38.34640242        0.33903379        0.35334108        1.99000000        1.67131531
    20.53386523       38.40623605        0.34090752        0.35251857        1.99000000        1.66924191
    20.60138848       38.46606968        0.34278099        0.35169519        1.99000000        1.66717117
    20.66874334       38.52590331        0.34465422        0.35087092        1.99000000        1.66510307
    20.73593145       38.58573694        0.34652722        0.35004575        1.99000000        1.66303759
    20.80295438       38.64557057        0.34839999        0.34921966        1.99000000        1.66097471
    20.86981369       38.70540420        0.35027255        0.34839264        1.99000000        1.65891443
    20.93651091       38.76523783        0.35214490        0.34756469        1.99000000        1.65685672
    21.00304753       38.82507146        0.35401705        0.34673577        1.99000000        1.65480158
    21.06942502       38.88490509        0.35588902        0.34590589        1.99000000        1.65274898
    21.13564480       38.94473872        0.35776080        0.34507503        1.99000000        1.65069892
    21.20170828       39.00457235        0.35963240        0.34424318        1.99000000        1.64865137
    21.26761684       39.06440598        0.36150384        0.34341032        1.99000000        1.64660633
    21.33337183       39.12423961        0.36337512        0.34257644        1.99000000        1.64456378
    21.39897456       39.18407324        0.36524624        0.34174154        1.99000000        1.64252370
    21.46442635       39.24390687        0.36711721        0.34090559        1.99000000        1.64048609
    21.52972844       39.30374050        0.36898804        0.34006858        1.99000000        1.63845093
    21.59488210       39.36357413        0.37085874        0.33923051        1.99000000        1.63641820
    21.65988855       39.42340776        0.37272930        0.33839136        1.99000000        1.63438790
    21.72474897       39.48324140        0.37459973        0.33755112        1.99000000        1.63236001
    21.78946455       39.54307503        0.37647005        0.33670978        1.99000000        1.63033451
    21.85403643       39.60290866        0.37834024        0.33586733        1.99000000        1.62831140
    21.91846576       39.66274229        0.38021032        0.33502376        1.99000000        1.62629066
    21.98275364       39.72257592        0.38208030        0.33417904        1.99000000        1.62427227
    22.04690115       39.78240955        0.38395016        0.33333319        1.99000000        1.62225624
    22.11090937       39.84224318        0.38581993        0.33248617        1.99000000        1.62024253
    22.17477933       39.90207681        0.38768960        0.33163799        1.99000000        1.61823115
    22.23851208       39.96191044        0.38955917        0.33078863        1.99000000        1.61622208
    22.30210861       40.02174407        0.39142865        0.32993807        1.99000000        1.61421531
    22.36556991       40.08157770        0.39329803        0.32908632        1.99000000        1.61221082
    22.42889697       40.14141133        0.39516734        0.32823336        1.99000000        1.61020861
    22.49209072       40.20124496        0.39703655        0.32737917        1.99000000        1.60820866
    22.55515210       40.26107859        0.39890569        0.32652376        1.99000000        1.60621096
    22.61808205       40.32091222        0.40077474        0.32566710        1.99000000        1.60421550
    22.68088145       40.38074585        0.40264371        0.32480919        1.99000000        1.60222227
    22.74355119       40.44057948        0.40451261        0.32395001        1.99000000        1.60023125
    22.80609215       40.50041311        0.40638143        0.32308956        1.99000000        1.59824245
    22.86850517       40.56024674        0.40825017        0.32222783        1.99000000        1.59625583
    22.93079109       40.62008037        0.41011884        0.32136481        1.99000000        1.59427141
    22.99295073       40.67991401        0.41198744        0.32050049        1.99000000        1.59228915
    23.05498491       40.73974764        0.41385597        0.31963485        1.99000000        1.59030906
    23.11689441       40.79958127        0.41572442        0.31876789        1.99000000        1.58833113
    23.17868002       40.85941490        0.41759280        0.31789959        1.99000000        1.58635533
    23.24034250       40.91924853        0.41946111        0.31702996        1.99000000        1.58438167
