#  Theta paroi en deg Angle Choc en deg       Kp           Inverse Mach       Mach amont       Mach aval
     0.00000000       18.94590580        0.00000000        0.67532468        3.08000000
     1.57703363       18.94803742        0.00420837        0.67336249        3.08000000        3.07983010
     1.90491899       18.95101994        0.00576735        0.67264413        3.08000000        3.07959242
     2.25661465       18.95655514        0.00763487        0.67178950        3.08000000        3.07915148
     2.63564392       18.96634482        0.00985647        0.67078100        3.08000000        3.07837211
     3.02728599       18.98209075        0.01236434        0.66965299        3.08000000        3.07711985
     3.42299498       19.00549474        0.01510477        0.66843267        3.08000000        3.07526152
     3.81974579       19.03825858        0.01805078        0.66713472        3.08000000        3.07266589
     4.21739227       19.08208404        0.02119489        0.66576487        3.08000000        3.06920459
     4.61710782       19.13867292        0.02454238        0.66432331        3.08000000        3.06475310
     5.02062946       19.20972702        0.02810704        0.66280667        3.08000000        3.05919179
     5.35928216       19.28078111        0.03123957        0.66148902        3.08000000        3.05366116
     5.65586022       19.35183521        0.03408705        0.66030312        3.08000000        3.04816067
     5.92266495       19.42288930        0.03673095        0.65921176        3.08000000        3.04268976
     6.16715342       19.49394340        0.03922165        0.65819198        3.08000000        3.03724789
     6.39421546       19.56499749        0.04159269        0.65722846        3.08000000        3.03183452
     6.60724500       19.63605158        0.04386767        0.65631046        3.08000000        3.02644916
     6.80870163       19.70710568        0.04606386        0.65543008        3.08000000        3.02109128
     7.00042929       19.77815977        0.04819434        0.65458137        3.08000000        3.01576041
     7.18384888       19.84921387        0.05026925        0.65375969        3.08000000        3.01045606
     7.36008024       19.92026796        0.05229664        0.65296135        3.08000000        3.00517776
     7.53002294       19.99132205        0.05428302        0.65218339        3.08000000        2.99992505
     7.69441127       20.06237615        0.05623371        0.65142336        3.08000000        2.99469748
     7.85385314       20.13343024        0.05815314        0.65067923        3.08000000        2.98949462
     8.00885783       20.20448434        0.06004504        0.64994927        3.08000000        2.98431603
     8.15985666       20.27553843        0.06191257        0.64923203        3.08000000        2.97916129
     8.30721836       20.34659253        0.06375843        0.64852627        3.08000000        2.97403001
     8.45126082       20.41764662        0.06558498        0.64783089        3.08000000        2.96892177
     8.59226017       20.48870071        0.06739424        0.64714494        3.08000000        2.96383618
     8.73045792       20.55975481        0.06918800        0.64646761        3.08000000        2.95877286
     8.86606660       20.63080890        0.07096782        0.64579814        3.08000000        2.95373144
     8.99927432       20.70186300        0.07273509        0.64513590        3.08000000        2.94871154
     9.13024840       20.77291709        0.07449105        0.64448031        3.08000000        2.94371282
     9.25913841       20.84397119        0.07623679        0.64383083        3.08000000        2.93873491
     9.38607862       20.91502528        0.07797332        0.64318700        3.08000000        2.93377747
     9.51119007       20.98607937        0.07970151        0.64254839        3.08000000        2.92884018
     9.63458226       21.05713347        0.08142218        0.64191462        3.08000000        2.92392270
     9.75635461       21.12818756        0.08313605        0.64128534        3.08000000        2.91902470
     9.87659770       21.19924166        0.08484378        0.64066023        3.08000000        2.91414588
     9.99539426       21.27029575        0.08654599        0.64003899        3.08000000        2.90928592
    10.11282014       21.34134984        0.08824322        0.63942135        3.08000000        2.90444453
    10.22894497       21.41240394        0.08993598        0.63880706        3.08000000        2.89962140
    10.34383293       21.48345803        0.09162473        0.63819590        3.08000000        2.89481625
    10.45754325       21.55451213        0.09330990        0.63758765        3.08000000        2.89002880
    10.57013077       21.62556622        0.09499189        0.63698210        3.08000000        2.88525877
    10.68164628       21.69662032        0.09667106        0.63637909        3.08000000        2.88050589
    10.79213704       21.76767441        0.09834775        0.63577844        3.08000000        2.87576989
    10.90164699       21.83872850        0.10002226        0.63517998        3.08000000        2.87105052
    11.01021716       21.90978260        0.10169490        0.63458357        3.08000000        2.86634751
    11.11788582       21.98083669        0.10336593        0.63398907        3.08000000        2.86166062
    11.22468886       22.05189079        0.10503560        0.63339635        3.08000000        2.85698960
    11.33065984       22.12294488        0.10670415        0.63280527        3.08000000        2.85233422
    11.43583030       22.19399898        0.10837179        0.63221574        3.08000000        2.84769424
    11.54022988       22.26505307        0.11003873        0.63162763        3.08000000        2.84306944
    11.64388648       22.33610716        0.11170517        0.63104084        3.08000000        2.83845958
    11.74682639       22.40716126        0.11337127        0.63045528        3.08000000        2.83386444
    11.84907441       22.47821535        0.11503721        0.62987085        3.08000000        2.82928382
    11.95065400       22.54926945        0.11670314        0.62928746        3.08000000        2.82471749
    12.05158731       22.62032354        0.11836922        0.62870503        3.08000000        2.82016526
    12.15189534       22.69137763        0.12003559        0.62812349        3.08000000        2.81562692
    12.25159799       22.76243173        0.12170236        0.62754275        3.08000000        2.81110226
    12.35071415       22.83348582        0.12336968        0.62696275        3.08000000        2.80659111
    12.44926175       22.90453992        0.12503765        0.62638341        3.08000000        2.80209325
    12.54725784       22.97559401        0.12670638        0.62580468        3.08000000        2.79760852
    12.64471865       23.04664811        0.12837598        0.62522648        3.08000000        2.79313671
    12.74165964       23.11770220        0.13004654        0.62464877        3.08000000        2.78867766
    12.83809554       23.18875629        0.13171817        0.62407147        3.08000000        2.78423119
    12.93404039       23.25981039        0.13339093        0.62349455        3.08000000        2.77979713
    13.02950764       23.33086448        0.13506492        0.62291794        3.08000000        2.77537530
    13.12451009       23.40191858        0.13674022        0.62234159        3.08000000        2.77096554
    13.21906000       23.47297267        0.13841689        0.62176547        3.08000000        2.76656768
    13.31316913       23.54402676        0.14009502        0.62118952        3.08000000        2.76218158
    13.40684870       23.61508086        0.14177465        0.62061369        3.08000000        2.75780706
    13.50010947       23.68613495        0.14345587        0.62003795        3.08000000        2.75344398
    13.59296179       23.75718905        0.14513872        0.61946225        3.08000000        2.74909219
    13.68541556       23.82824314        0.14682326        0.61888656        3.08000000        2.74475153
    13.77748028       23.89929724        0.14850955        0.61831084        3.08000000        2.74042187
    13.86916509       23.97035133        0.15019764        0.61773504        3.08000000        2.73610307
    13.96047879       24.04140542        0.15188757        0.61715914        3.08000000        2.73179498
    14.05142981       24.11245952        0.15357939        0.61658310        3.08000000        2.72749746
    14.14202631       24.18351361        0.15527315        0.61600689        3.08000000        2.72321039
    14.23227608       24.25456771        0.15696888        0.61543047        3.08000000        2.71893363
    14.32218669       24.32562180        0.15866662        0.61485381        3.08000000        2.71466705
    14.41176538       24.39667590        0.16036641        0.61427689        3.08000000        2.71041053
    14.50101920       24.46772999        0.16206829        0.61369967        3.08000000        2.70616395
    14.58995487       24.53878408        0.16377229        0.61312213        3.08000000        2.70192717
    14.67857894       24.60983818        0.16547844        0.61254425        3.08000000        2.69770009
    14.76689770       24.68089227        0.16718676        0.61196598        3.08000000        2.69348258
    14.85491726       24.75194637        0.16889730        0.61138731        3.08000000        2.68927453
    14.94264349       24.82300046        0.17061006        0.61080821        3.08000000        2.68507584
    15.03008207       24.89405455        0.17232509        0.61022867        3.08000000        2.68088637
    15.11723852       24.96510865        0.17404241        0.60964864        3.08000000        2.67670604
    15.20411815       25.03616274        0.17576203        0.60906812        3.08000000        2.67253473
    15.29072614       25.10721684        0.17748397        0.60848708        3.08000000        2.66837234
    15.37706746       25.17827093        0.17920827        0.60790550        3.08000000        2.66421877
    15.46314697       25.24932503        0.18093494        0.60732335        3.08000000        2.66007391
    15.54896934       25.32037912        0.18266399        0.60674062        3.08000000        2.65593767
    15.63453911       25.39143321        0.18439544        0.60615729        3.08000000        2.65180995
    15.71986071       25.46248731        0.18612931        0.60557333        3.08000000        2.64769065
    15.80493841       25.53354140        0.18786562        0.60498874        3.08000000        2.64357969
    15.88977634       25.60459550        0.18960438        0.60440348        3.08000000        2.63947697
    15.97437856       25.67564959        0.19134560        0.60381754        3.08000000        2.63538240
    16.05874896       25.74670369        0.19308930        0.60323090        3.08000000        2.63129589
    16.14289136       25.81775778        0.19483548        0.60264356        3.08000000        2.62721735
    16.22680943       25.88881187        0.19658416        0.60205548        3.08000000        2.62314671
    16.31050679       25.95986597        0.19833535        0.60146665        3.08000000        2.61908387
    16.39398691       26.03092006        0.20008906        0.60087706        3.08000000        2.61502877
    16.47725318       26.10197416        0.20184530        0.60028669        3.08000000        2.61098130
    16.56030892       26.17302825        0.20360407        0.59969552        3.08000000        2.60694141
    16.64315733       26.24408234        0.20536539        0.59910355        3.08000000        2.60290900
    16.72580154       26.31513644        0.20712926        0.59851075        3.08000000        2.59888400
    16.80824460       26.38619053        0.20889568        0.59791711        3.08000000        2.59486635
    16.89048948       26.45724463        0.21066467        0.59732262        3.08000000        2.59085596
    16.97253905       26.52829872        0.21243623        0.59672725        3.08000000        2.58685276
    17.05439614       26.59935282        0.21421036        0.59613101        3.08000000        2.58285669
    17.13606350       26.67040691        0.21598707        0.59553387        3.08000000        2.57886766
    17.21754378       26.74146100        0.21776636        0.59493583        3.08000000        2.57488563
    17.29883960       26.81251510        0.21954824        0.59433686        3.08000000        2.57091051
    17.37995351       26.88356919        0.22133270        0.59373696        3.08000000        2.56694225
    17.46088797       26.95462329        0.22311976        0.59313611        3.08000000        2.56298077
    17.54164542       27.02567738        0.22490942        0.59253430        3.08000000        2.55902601
    17.62222821       27.09673148        0.22670167        0.59193152        3.08000000        2.55507792
    17.70263865       27.16778557        0.22849652        0.59132776        3.08000000        2.55113644
    17.78287898       27.23883966        0.23029396        0.59072301        3.08000000        2.54720149
    17.86295140       27.30989376        0.23209401        0.59011725        3.08000000        2.54327302
    17.94285806       27.38094785        0.23389666        0.58951047        3.08000000        2.53935098
    18.02260106       27.45200195        0.23570190        0.58890266        3.08000000        2.53543531
    18.10218243       27.52305604        0.23750975        0.58829381        3.08000000        2.53152594
    18.18160419       27.59411013        0.23932020        0.58768391        3.08000000        2.52762284
    18.26086828       27.66516423        0.24113324        0.58707295        3.08000000        2.52372593
    18.33997662       27.73621832        0.24294888        0.58646092        3.08000000        2.51983518
    18.41893108       27.80727242        0.24476712        0.58584781        3.08000000        2.51595053
    18.49773348       27.87832651        0.24658796        0.58523360        3.08000000        2.51207192
    18.57638561       27.94938061        0.24841138        0.58461829        3.08000000        2.50819931
    18.65488922       28.02043470        0.25023740        0.58400187        3.08000000        2.50433264
    18.73324602       28.09148879        0.25206600        0.58338433        3.08000000        2.50047187
    18.81145768       28.16254289        0.25389719        0.58276566        3.08000000        2.49661696
    18.88952583       28.23359698        0.25573096        0.58214584        3.08000000        2.49276785
    18.96745210       28.30465108        0.25756731        0.58152488        3.08000000        2.48892449
    19.04523804       28.37570517        0.25940623        0.58090275        3.08000000        2.48508685
    19.12288517       28.44675926        0.26124773        0.58027945        3.08000000        2.48125488
    19.20039503       28.51781336        0.26309179        0.57965498        3.08000000        2.47742854
    19.27776906       28.58886745        0.26493842        0.57902931        3.08000000        2.47360778
    19.35500873       28.65992155        0.26678761        0.57840246        3.08000000        2.46979255
    19.43211544       28.73097564        0.26863936        0.57777439        3.08000000        2.46598283
    19.50909057       28.80202974        0.27049365        0.57714511        3.08000000        2.46217856
    19.58593549       28.87308383        0.27235049        0.57651461        3.08000000        2.45837971
    19.66265152       28.94413792        0.27420987        0.57588288        3.08000000        2.45458624
    19.73923996       29.01519202        0.27607179        0.57524990        3.08000000        2.45079812
    19.81570210       29.08624611        0.27793624        0.57461568        3.08000000        2.44701529
    19.89203919       29.15730021        0.27980322        0.57398020        3.08000000        2.44323773
    19.96825244       29.22835430        0.28167271        0.57334346        3.08000000        2.43946539
    20.04434307       29.29940840        0.28354472        0.57270545        3.08000000        2.43569825
    20.12031227       29.37046249        0.28541923        0.57206615        3.08000000        2.43193627
    20.19616117       29.44151658        0.28729625        0.57142556        3.08000000        2.42817941
    20.27189093       29.51257068        0.28917576        0.57078368        3.08000000        2.42442764
    20.34750265       29.58362477        0.29105776        0.57014049        3.08000000        2.42068092
    20.42299743       29.65467887        0.29294225        0.56949599        3.08000000        2.41693922
    20.49837634       29.72573296        0.29482921        0.56885017        3.08000000        2.41320251
    20.57364043       29.79678705        0.29671864        0.56820302        3.08000000        2.40947076
    20.64879073       29.86784115        0.29861053        0.56755453        3.08000000        2.40574393
    20.72382827       29.93889524        0.30050487        0.56690470        3.08000000        2.40202200
    20.79875403       30.00994934        0.30240167        0.56625352        3.08000000        2.39830493
    20.87356899       30.08100343        0.30430091        0.56560098        3.08000000        2.39459270
    20.94827410       30.15205753        0.30620258        0.56494708        3.08000000        2.39088527
    21.02287031       30.22311162        0.30810668        0.56429180        3.08000000        2.38718262
    21.09735855       30.29416571        0.31001319        0.56363514        3.08000000        2.38348471
    21.17173972       30.36521981        0.31192212        0.56297709        3.08000000        2.37979153
    21.24601470       30.43627390        0.31383345        0.56231765        3.08000000        2.37610303
    21.32018438       30.50732800        0.31574718        0.56165681        3.08000000        2.37241921
    21.39424962       30.57838209        0.31766329        0.56099455        3.08000000        2.36874002
    21.46821126       30.64943619        0.31958178        0.56033088        3.08000000        2.36506544
    21.54207013       30.72049028        0.32150265        0.55966578        3.08000000        2.36139545
    21.61582704       30.79154437        0.32342588        0.55899926        3.08000000        2.35773003
    21.68948279       30.86259847        0.32535146        0.55833129        3.08000000        2.35406914
    21.76303817       30.93365256        0.32727939        0.55766188        3.08000000        2.35041276
    21.83649395       31.00470666        0.32920965        0.55699102        3.08000000        2.34676087
    21.90985090       31.07576075        0.33114225        0.55631870        3.08000000        2.34311345
    21.98310975       31.14681484        0.33307717        0.55564491        3.08000000        2.33947047
    22.05627124       31.21786894        0.33501439        0.55496965        3.08000000        2.33583190
    22.12933610       31.28892303        0.33695392        0.55429291        3.08000000        2.33219774
    22.20230502       31.35997713        0.33889575        0.55361468        3.08000000        2.32856794
    22.27517870       31.43103122        0.34083986        0.55293496        3.08000000        2.32494250
    22.34795784       31.50208532        0.34278624        0.55225374        3.08000000        2.32132140
    22.42064310       31.57313941        0.34473490        0.55157101        3.08000000        2.31770460
    22.49323513       31.64419350        0.34668581        0.55088677        3.08000000        2.31409209
    22.56573461       31.71524760        0.34863897        0.55020101        3.08000000        2.31048385
