#  Theta paroi en deg Angle Choc en deg       Kp           Inverse Mach       Mach amont       Mach aval
     0.00000000       39.26524791        0.00000000        0.36708861        1.58000000
     2.16536113       39.26676996        0.00940149        0.36262782        1.58000000        1.57994861
     2.56316656       39.26889956        0.01253758        0.36113965        1.58000000        1.57987671
     3.01128806       39.27285186        0.01647467        0.35927118        1.58000000        1.57974328
     3.50525887       39.27984198        0.02127569        0.35699232        1.58000000        1.57950735
     4.02014803       39.29108506        0.02676002        0.35438845        1.58000000        1.57912799
     4.54053224       39.30779621        0.03276984        0.35153410        1.58000000        1.57856441
     5.05940785       39.33119056        0.03920378        0.34847693        1.58000000        1.57777601
     5.57429675       39.36248326        0.04600289        0.34524441        1.58000000        1.57672244
     6.08489464       39.40288942        0.05313574        0.34185085        1.58000000        1.57536377
     6.59190065       39.45362417        0.06058863        0.33830207        1.58000000        1.57366052
     7.01011733       39.50435892        0.06700528        0.33524400        1.58000000        1.57196031
     7.37057587       39.55509367        0.07272591        0.33251530        1.58000000        1.57026311
     7.69007587       39.60582843        0.07794082        0.33002575        1.58000000        1.56856891
     7.97882496       39.65656318        0.08276862        0.32771913        1.58000000        1.56687769
     8.24352854       39.70729793        0.08728888        0.32555769        1.58000000        1.56518943
     8.48884751       39.75803268        0.09155790        0.32351475        1.58000000        1.56350412
     8.71816370       39.80876743        0.09561719        0.32157064        1.58000000        1.56182173
     8.93401521       39.85950219        0.09949828        0.31971041        1.58000000        1.56014227
     9.13835953       39.91023694        0.10322582        0.31792237        1.58000000        1.55846570
     9.33274083       39.96097169        0.10681945        0.31619721        1.58000000        1.55679202
     9.51840033       40.01170644        0.11029512        0.31452737        1.58000000        1.55512121
     9.69635204       40.06244119        0.11366595        0.31290662        1.58000000        1.55345325
     9.86743587       40.11317595        0.11694293        0.31132976        1.58000000        1.55178812
    10.03235600       40.16391070        0.12013532        0.30979239        1.58000000        1.55012582
    10.19170908       40.21464545        0.12325104        0.30829076        1.58000000        1.54846632
    10.34600552       40.26538020        0.12629688        0.30682164        1.58000000        1.54680962
    10.49568552       40.31611495        0.12927876        0.30538222        1.58000000        1.54515569
    10.64113169       40.36684971        0.13220184        0.30397006        1.58000000        1.54350453
    10.78267880       40.41758446        0.13507066        0.30258301        1.58000000        1.54185611
    10.92062164       40.46831921        0.13788923        0.30121914        1.58000000        1.54021043
    11.05522117       40.51905396        0.14066114        0.29987676        1.58000000        1.53856746
    11.18670967       40.56978872        0.14338957        0.29855436        1.58000000        1.53692720
    11.31529484       40.62052347        0.14607739        0.29725058        1.58000000        1.53528963
    11.44116320       40.67125822        0.14872718        0.29596417        1.58000000        1.53365474
    11.56448298       40.72199297        0.15134129        0.29469404        1.58000000        1.53202251
    11.68540638       40.77272772        0.15392184        0.29343916        1.58000000        1.53039292
    11.80407171       40.82346248        0.15647077        0.29219862        1.58000000        1.52876597
    11.92060496       40.87419723        0.15898984        0.29097156        1.58000000        1.52714164
    12.03512128       40.92493198        0.16148068        0.28975723        1.58000000        1.52551992
    12.14772622       40.97566673        0.16394477        0.28855490        1.58000000        1.52390080
    12.25851680       41.02640148        0.16638350        0.28736393        1.58000000        1.52228425
    12.36758238       41.07713624        0.16879812        0.28618370        1.58000000        1.52067027
    12.47500548       41.12787099        0.17118981        0.28501365        1.58000000        1.51905885
    12.58086252       41.17860574        0.17355967        0.28385326        1.58000000        1.51744997
    12.68522431       41.22934049        0.17590869        0.28270206        1.58000000        1.51584362
    12.78815673       41.28007524        0.17823783        0.28155957        1.58000000        1.51423978
    12.88972106       41.33081000        0.18054797        0.28042539        1.58000000        1.51263845
    12.98997452       41.38154475        0.18283991        0.27929912        1.58000000        1.51103961
    13.08897050       41.43227950        0.18511444        0.27818039        1.58000000        1.50944325
    13.18675904       41.48301425        0.18737228        0.27706885        1.58000000        1.50784935
    13.28338700       41.53374900        0.18961409        0.27596418        1.58000000        1.50625791
    13.37889837       41.58448376        0.19184051        0.27486606        1.58000000        1.50466891
    13.47333453       41.63521851        0.19405215        0.27377422        1.58000000        1.50308234
    13.56673441       41.68595326        0.19624956        0.27268838        1.58000000        1.50149818
    13.65913470       41.73668801        0.19843328        0.27160827        1.58000000        1.49991644
    13.75057002       41.78742277        0.20060381        0.27053367        1.58000000        1.49833708
    13.84107310       41.83815752        0.20276163        0.26946433        1.58000000        1.49676011
    13.93067489       41.88889227        0.20490718        0.26840003        1.58000000        1.49518551
    14.01940467       41.93962702        0.20704089        0.26734058        1.58000000        1.49361327
    14.10729023       41.99036177        0.20916316        0.26628577        1.58000000        1.49204338
    14.19435792       42.04109653        0.21127439        0.26523541        1.58000000        1.49047583
    14.28063276       42.09183128        0.21337492        0.26418933        1.58000000        1.48891060
    14.36613856       42.14256603        0.21546512        0.26314735        1.58000000        1.48734768
    14.45089795       42.19330078        0.21754530        0.26210932        1.58000000        1.48578707
    14.53493249       42.24403553        0.21961579        0.26107508        1.58000000        1.48422875
    14.61826273       42.29477029        0.22167689        0.26004448        1.58000000        1.48267271
    14.70090827       42.34550504        0.22372887        0.25901737        1.58000000        1.48111895
    14.78288782       42.39623979        0.22577202        0.25799364        1.58000000        1.47956744
    14.86421927       42.44697454        0.22780659        0.25697313        1.58000000        1.47801818
    14.94491969       42.49770929        0.22983284        0.25595574        1.58000000        1.47647116
    15.02500545       42.54844405        0.23185100        0.25494134        1.58000000        1.47492637
    15.10449219       42.59917880        0.23386130        0.25392982        1.58000000        1.47338380
    15.18339491       42.64991355        0.23586396        0.25292106        1.58000000        1.47184344
    15.26172799       42.70064830        0.23785919        0.25191497        1.58000000        1.47030527
    15.33950521       42.75138305        0.23984719        0.25091144        1.58000000        1.46876930
    15.41673983       42.80211781        0.24182815        0.24991037        1.58000000        1.46723550
    15.49344453       42.85285256        0.24380227        0.24891167        1.58000000        1.46570386
    15.56963154       42.90358731        0.24576971        0.24791526        1.58000000        1.46417439
    15.64531259       42.95432206        0.24773065        0.24692103        1.58000000        1.46264706
    15.72049900       43.00505682        0.24968526        0.24592892        1.58000000        1.46112188
    15.79520161       43.05579157        0.25163369        0.24493883        1.58000000        1.45959882
    15.86943090       43.10652632        0.25357609        0.24395069        1.58000000        1.45807788
    15.94319697       43.15726107        0.25551261        0.24296443        1.58000000        1.45655905
    16.01650952       43.20799582        0.25744339        0.24197997        1.58000000        1.45504232
    16.08937793       43.25873058        0.25936857        0.24099724        1.58000000        1.45352768
    16.16181124       43.30946533        0.26128828        0.24001617        1.58000000        1.45201512
    16.23381819       43.36020008        0.26320264        0.23903670        1.58000000        1.45050463
    16.30540719       43.41093483        0.26511178        0.23805876        1.58000000        1.44899621
    16.37658638       43.46166958        0.26701582        0.23708229        1.58000000        1.44748985
    16.44736365       43.51240434        0.26891487        0.23610724        1.58000000        1.44598552
    16.51774659       43.56313909        0.27080903        0.23513354        1.58000000        1.44448324
    16.58774255       43.61387384        0.27269842        0.23416113        1.58000000        1.44298298
    16.65735866       43.66460859        0.27458314        0.23318997        1.58000000        1.44148474
    16.72660180       43.71534334        0.27646329        0.23222000        1.58000000        1.43998851
    16.79547864       43.76607810        0.27833895        0.23125117        1.58000000        1.43849429
    16.86399564       43.81681285        0.28021024        0.23028343        1.58000000        1.43700205
    16.93215906       43.86754760        0.28207722        0.22931672        1.58000000        1.43551180
    16.99997496       43.91828235        0.28394001        0.22835101        1.58000000        1.43402353
    17.06744922       43.96901710        0.28579866        0.22738624        1.58000000        1.43253723
    17.13458755       44.01975186        0.28765328        0.22642238        1.58000000        1.43105288
    17.20139548       44.07048661        0.28950393        0.22545938        1.58000000        1.42957049
    17.26787838       44.12122136        0.29135069        0.22449719        1.58000000        1.42809003
    17.33404145       44.17195611        0.29319364        0.22353578        1.58000000        1.42661152
    17.39988977       44.22269087        0.29503285        0.22257510        1.58000000        1.42513493
    17.46542824       44.27342562        0.29686839        0.22161512        1.58000000        1.42366026
    17.53066165       44.32416037        0.29870032        0.22065580        1.58000000        1.42218750
    17.59559462       44.37489512        0.30052872        0.21969710        1.58000000        1.42071664
    17.66023168       44.42562987        0.30235364        0.21873899        1.58000000        1.41924768
    17.72457721       44.47636463        0.30417515        0.21778142        1.58000000        1.41778061
    17.78863548       44.52709938        0.30599330        0.21682437        1.58000000        1.41631542
    17.85241063       44.57783413        0.30780816        0.21586781        1.58000000        1.41485210
    17.91590670       44.62856888        0.30961978        0.21491169        1.58000000        1.41339065
    17.97912762       44.67930363        0.31142822        0.21395599        1.58000000        1.41193105
    18.04207722       44.73003839        0.31323353        0.21300068        1.58000000        1.41047330
    18.10475923       44.78077314        0.31503575        0.21204572        1.58000000        1.40901740
    18.16717728       44.83150789        0.31683495        0.21109108        1.58000000        1.40756333
    18.22933489       44.88224264        0.31863117        0.21013675        1.58000000        1.40611109
    18.29123552       44.93297739        0.32042446        0.20918268        1.58000000        1.40466067
    18.35288251       44.98371215        0.32221487        0.20822885        1.58000000        1.40321207
    18.41427915       45.03444690        0.32400243        0.20727523        1.58000000        1.40176527
    18.47542861       45.08518165        0.32578719        0.20632180        1.58000000        1.40032028
    18.53633402       45.13591640        0.32756920        0.20536853        1.58000000        1.39887707
    18.59699840       45.18665116        0.32934850        0.20441540        1.58000000        1.39743565
    18.65742471       45.23738591        0.33112513        0.20346237        1.58000000        1.39599601
    18.71761586       45.28812066        0.33289912        0.20250942        1.58000000        1.39455815
    18.77757464       45.33885541        0.33467052        0.20155654        1.58000000        1.39312205
    18.83730381       45.38959016        0.33643935        0.20060370        1.58000000        1.39168771
    18.89680606       45.44032492        0.33820567        0.19965086        1.58000000        1.39025512
    18.95608401       45.49105967        0.33996950        0.19869802        1.58000000        1.38882427
    19.01514023       45.54179442        0.34173087        0.19774515        1.58000000        1.38739517
    19.07397720       45.59252917        0.34348983        0.19679222        1.58000000        1.38596780
    19.13259738       45.64326392        0.34524640        0.19583922        1.58000000        1.38454215
    19.19100315       45.69399868        0.34700061        0.19488613        1.58000000        1.38311823
    19.24919685       45.74473343        0.34875250        0.19393291        1.58000000        1.38169602
    19.30718075       45.79546818        0.35050210        0.19297956        1.58000000        1.38027552
    19.36495709       45.84620293        0.35224943        0.19202606        1.58000000        1.37885671
    19.42252804       45.89693768        0.35399452        0.19107238        1.58000000        1.37743961
    19.47989573       45.94767244        0.35573740        0.19011850        1.58000000        1.37602419
    19.53706225       45.99840719        0.35747810        0.18916441        1.58000000        1.37461046
    19.59402963       46.04914194        0.35921665        0.18821009        1.58000000        1.37319840
    19.65079987       46.09987669        0.36095307        0.18725552        1.58000000        1.37178801
    19.70737492       46.15061144        0.36268738        0.18630068        1.58000000        1.37037929
    19.76375668       46.20134620        0.36441961        0.18534555        1.58000000        1.36897223
    19.81994702       46.25208095        0.36614978        0.18439012        1.58000000        1.36756682
    19.87594777       46.30281570        0.36787793        0.18343437        1.58000000        1.36616306
    19.93176072       46.35355045        0.36960406        0.18247828        1.58000000        1.36476094
    19.98738762       46.40428521        0.37132820        0.18152184        1.58000000        1.36336046
    20.04283018       46.45501996        0.37305037        0.18056503        1.58000000        1.36196161
    20.09809008       46.50575471        0.37477060        0.17960783        1.58000000        1.36056438
    20.15316895       46.55648946        0.37648890        0.17865023        1.58000000        1.35916877
    20.20806842       46.60722421        0.37820530        0.17769221        1.58000000        1.35777478
    20.26279006       46.65795897        0.37991981        0.17673376        1.58000000        1.35638239
    20.31733541       46.70869372        0.38163246        0.17577487        1.58000000        1.35499161
    20.37170599       46.75942847        0.38334325        0.17481551        1.58000000        1.35360242
    20.42590327       46.81016322        0.38505221        0.17385568        1.58000000        1.35221483
    20.47992871       46.86089797        0.38675937        0.17289535        1.58000000        1.35082883
    20.53378373       46.91163273        0.38846472        0.17193452        1.58000000        1.34944440
    20.58746973       46.96236748        0.39016830        0.17097318        1.58000000        1.34806156
    20.64098807       47.01310223        0.39187011        0.17001129        1.58000000        1.34668028
    20.69434010       47.06383698        0.39357017        0.16904887        1.58000000        1.34530057
    20.74752711       47.11457173        0.39526851        0.16808588        1.58000000        1.34392243
    20.80055041       47.16530649        0.39696512        0.16712232        1.58000000        1.34254583
    20.85341126       47.21604124        0.39866004        0.16615817        1.58000000        1.34117079
    20.90611089       47.26677599        0.40035327        0.16519343        1.58000000        1.33979730
    20.95865052       47.31751074        0.40204482        0.16422807        1.58000000        1.33842535
    21.01103134       47.36824549        0.40373472        0.16326209        1.58000000        1.33705493
    21.06325451       47.41898025        0.40542297        0.16229548        1.58000000        1.33568605
    21.11532118       47.46971500        0.40710959        0.16132821        1.58000000        1.33431870
    21.16723248       47.52044975        0.40879458        0.16036029        1.58000000        1.33295286
    21.21898950       47.57118450        0.41047797        0.15939169        1.58000000        1.33158854
    21.27059333       47.62191926        0.41215977        0.15842241        1.58000000        1.33022574
    21.32204502       47.67265401        0.41383997        0.15745243        1.58000000        1.32886445
    21.37334562       47.72338876        0.41551861        0.15648175        1.58000000        1.32750465
    21.42449615       47.77412351        0.41719568        0.15551034        1.58000000        1.32614636
    21.47549761       47.82485826        0.41887121        0.15453821        1.58000000        1.32478957
    21.52635099       47.87559302        0.42054519        0.15356534        1.58000000        1.32343426
    21.57705724       47.92632777        0.42221764        0.15259171        1.58000000        1.32208044
    21.62761732       47.97706252        0.42388858        0.15161733        1.58000000        1.32072810
    21.67803215       48.02779727        0.42555800        0.15064217        1.58000000        1.31937723
    21.72830264       48.07853202        0.42722593        0.14966622        1.58000000        1.31802784
    21.77842970       48.12926678        0.42889236        0.14868949        1.58000000        1.31667992
    21.82841421       48.18000153        0.43055732        0.14771194        1.58000000        1.31533346
    21.87825701       48.23073628        0.43222080        0.14673359        1.58000000        1.31398846
    21.92795897       48.28147103        0.43388281        0.14575441        1.58000000        1.31264492
    21.97752091       48.33220578        0.43554337        0.14477439        1.58000000        1.31130283
    22.02694364       48.38294054        0.43720248        0.14379353        1.58000000        1.30996219
