#  Theta paroi en deg Angle Choc en deg       Kp           Inverse Mach       Mach amont       Mach aval
     0.00000000        5.73917048        0.00000000        0.90000000       10.00000000
     0.69341268        5.74169830        0.00070718        0.89927237       10.00000000        9.99846414
     0.84139891        5.74523518        0.00097210        0.89900716       10.00000000        9.99631707
     0.99932382        5.75179920        0.00128766        0.89869623       10.00000000        9.99233814
     1.17082367        5.76340847        0.00166616        0.89833014       10.00000000        9.98531917
     1.35121109        5.78208108        0.00210239        0.89791712       10.00000000        9.97407805
     1.53832861        5.80983515        0.00259451        0.89746201       10.00000000        9.95747814
     1.73226098        5.84868875        0.00314596        0.89696496       10.00000000        9.93445165
     1.93423154        5.90066000        0.00376428        0.89642281       10.00000000        9.90402470
     2.14596819        5.96776699        0.00446030        0.89583033       10.00000000        9.86534062
     2.36940341        6.05202782        0.00524769        0.89518083       10.00000000        9.81767791
     2.56484327        6.13628865        0.00598108        0.89459387       10.00000000        9.77096295
     2.74210444        6.22054948        0.00668245        0.89404721       10.00000000        9.72513159
     2.90648267        6.30481031        0.00736379        0.89352866       10.00000000        9.68012520
     3.06118732        6.38907113        0.00803238        0.89303073       10.00000000        9.63589007
     3.20832237        6.47333196        0.00869297        0.89254844       10.00000000        9.59237699
     3.34934790        6.55759279        0.00934888        0.89207833       10.00000000        9.54954077
     3.48532187        6.64185362        0.01000246        0.89161784       10.00000000        9.50733994
     3.61703754        6.72611445        0.01065548        0.89116507       10.00000000        9.46573633
     3.74510640        6.81037528        0.01130929        0.89071851       10.00000000        9.42469482
     3.87001049        6.89463611        0.01196492        0.89027700       10.00000000        9.38418308
     3.99213730        6.97889694        0.01262319        0.88983958       10.00000000        9.34417129
     4.11180346        7.06315777        0.01328479        0.88940546       10.00000000        9.30463194
     4.22927129        7.14741860        0.01395024        0.88897401       10.00000000        9.26553963
     4.34476093        7.23167943        0.01461999        0.88854466       10.00000000        9.22687089
     4.45845906        7.31594026        0.01529441        0.88811696       10.00000000        9.18860405
     4.57052550        7.40020109        0.01597382        0.88769052       10.00000000        9.15071903
     4.68109837        7.48446192        0.01665846        0.88726498       10.00000000        9.11319727
     4.79029784        7.56872275        0.01734858        0.88684006       10.00000000        9.07602157
     4.89822928        7.65298358        0.01804435        0.88641549       10.00000000        9.03917602
     5.00498565        7.73724441        0.01874594        0.88599104       10.00000000        9.00264584
     5.11064940        7.82150524        0.01945350        0.88556651       10.00000000        8.96641735
     5.21529412        7.90576607        0.02016714        0.88514172       10.00000000        8.93047785
     5.31898570        7.99002690        0.02088697        0.88471652       10.00000000        8.89481555
     5.42178357        8.07428773        0.02161308        0.88429076       10.00000000        8.85941953
     5.52374136        8.15854855        0.02234556        0.88386431       10.00000000        8.82427962
     5.62490780        8.24280938        0.02308448        0.88343706       10.00000000        8.78938638
     5.72532727        8.32707021        0.02382991        0.88300891       10.00000000        8.75473107
     5.82504030        8.41133104        0.02458188        0.88257977       10.00000000        8.72030552
     5.92408407        8.49559187        0.02534047        0.88214955       10.00000000        8.68610217
     6.02249274        8.57985270        0.02610570        0.88171817       10.00000000        8.65211398
     6.12029779        8.66411353        0.02687763        0.88128558       10.00000000        8.61833440
     6.21752835        8.74837436        0.02765627        0.88085170       10.00000000        8.58475734
     6.31421137        8.83263519        0.02844167        0.88041648       10.00000000        8.55137713
     6.41037188        8.91689602        0.02923385        0.87997987       10.00000000        8.51818851
     6.50603315        9.00115685        0.03003283        0.87954183       10.00000000        8.48518655
     6.60121690        9.08541768        0.03083864        0.87910231       10.00000000        8.45236671
     6.69594341        9.16967851        0.03165128        0.87866128       10.00000000        8.41972473
     6.79023163        9.25393934        0.03247079        0.87821869       10.00000000        8.38725664
     6.88409934        9.33820017        0.03329717        0.87777452       10.00000000        8.35495875
     6.97756322        9.42246100        0.03413043        0.87732875       10.00000000        8.32282765
     7.07063896        9.50672183        0.03497059        0.87688134       10.00000000        8.29086012
     7.16334134        9.59098266        0.03581765        0.87643227       10.00000000        8.25905318
     7.25568424        9.67524349        0.03667163        0.87598153       10.00000000        8.22740406
     7.34768082        9.75950432        0.03753252        0.87552908       10.00000000        8.19591016
     7.43934351        9.84376515        0.03840034        0.87507493       10.00000000        8.16456907
     7.53068404        9.92802597        0.03927509        0.87461904       10.00000000        8.13337855
     7.62171354       10.01228680        0.04015677        0.87416141       10.00000000        8.10233647
     7.71244256       10.09654763        0.04104539        0.87370203       10.00000000        8.07144090
     7.80288114       10.18080846        0.04194095        0.87324088       10.00000000        8.04069000
     7.89303879       10.26506929        0.04284344        0.87277796       10.00000000        8.01008205
     7.98292457       10.34933012        0.04375288        0.87231326       10.00000000        7.97961546
     8.07254707       10.43359095        0.04466925        0.87184676       10.00000000        7.94928874
     8.16191454       10.51785178        0.04559257        0.87137848       10.00000000        7.91910050
     8.25103480       10.60211261        0.04652282        0.87090839       10.00000000        7.88904942
     8.33991532       10.68637344        0.04746000        0.87043650       10.00000000        7.85913428
     8.42856323       10.77063427        0.04840413        0.86996279       10.00000000        7.82935395
     8.51698536       10.85489510        0.04935518        0.86948728       10.00000000        7.79970733
     8.60518824       10.93915593        0.05031316        0.86900996       10.00000000        7.77019343
     8.69317812       11.02341676        0.05127806        0.86853082       10.00000000        7.74081130
     8.78096097       11.10767759        0.05224989        0.86804987       10.00000000        7.71156004
     8.86854252       11.19193842        0.05322864        0.86756711       10.00000000        7.68243881
     8.95592828       11.27619925        0.05421429        0.86708253       10.00000000        7.65344683
     9.04312351       11.36046008        0.05520686        0.86659613       10.00000000        7.62458335
     9.13013330       11.44472091        0.05620633        0.86610793       10.00000000        7.59584765
     9.21696248       11.52898174        0.05721269        0.86561791       10.00000000        7.56723907
     9.30361576       11.61324257        0.05822595        0.86512609       10.00000000        7.53875697
     9.39009762       11.69750339        0.05924610        0.86463246       10.00000000        7.51040075
     9.47641239       11.78176422        0.06027312        0.86413703       10.00000000        7.48216983
     9.56256423       11.86602505        0.06130703        0.86363980       10.00000000        7.45406367
     9.64855715       11.95028588        0.06234780        0.86314077       10.00000000        7.42608174
     9.73439501       12.03454671        0.06339543        0.86263995       10.00000000        7.39822353
     9.82008156       12.11880754        0.06444991        0.86213733       10.00000000        7.37048857
     9.90562036       12.20306837        0.06551125        0.86163294       10.00000000        7.34287638
     9.99101489       12.28732920        0.06657943        0.86112676       10.00000000        7.31538652
    10.07626849       12.37159003        0.06765444        0.86061880       10.00000000        7.28801856
    10.16138439       12.45585086        0.06873627        0.86010907       10.00000000        7.26077207
    10.24636571       12.54011169        0.06982493        0.85959758       10.00000000        7.23364664
    10.33121545       12.62437252        0.07092040        0.85908432       10.00000000        7.20664188
    10.41593655       12.70863335        0.07202267        0.85856930       10.00000000        7.17975738
    10.50053180       12.79289418        0.07313173        0.85805253       10.00000000        7.15299278
    10.58500392       12.87715501        0.07424759        0.85753401       10.00000000        7.12634770
    10.66935557       12.96141584        0.07537022        0.85701375       10.00000000        7.09982176
    10.75358928       13.04567667        0.07649962        0.85649176       10.00000000        7.07341461
    10.83770754       13.12993750        0.07763579        0.85596803       10.00000000        7.04712589
    10.92171272       13.21419833        0.07877870        0.85544257       10.00000000        7.02095523
    11.00560714       13.29845916        0.07992837        0.85491539       10.00000000        6.99490229
    11.08939306       13.38271998        0.08108477        0.85438650       10.00000000        6.96896672
    11.17307263       13.46698081        0.08224789        0.85385589       10.00000000        6.94314818
    11.25664800       13.55124164        0.08341774        0.85332358       10.00000000        6.91744630
    11.34012118       13.63550247        0.08459429        0.85278957       10.00000000        6.89186075
    11.42349416       13.71976330        0.08577754        0.85225387       10.00000000        6.86639118
    11.50676888       13.80402413        0.08696749        0.85171648       10.00000000        6.84103725
    11.58994720       13.88828496        0.08816411        0.85117741       10.00000000        6.81579860
    11.67303094       13.97254579        0.08936741        0.85063666       10.00000000        6.79067490
    11.75602186       14.05680662        0.09057737        0.85009424       10.00000000        6.76566579
    11.83892167       14.14106745        0.09179397        0.84955015       10.00000000        6.74077092
    11.92173205       14.22532828        0.09301723        0.84900440       10.00000000        6.71598995
    12.00445459       14.30958911        0.09424711        0.84845700       10.00000000        6.69132251
    12.08709088       14.39384994        0.09548362        0.84790795       10.00000000        6.66676825
    12.16964244       14.47811077        0.09672673        0.84735725       10.00000000        6.64232682
    12.25211075       14.56237160        0.09797646        0.84680492       10.00000000        6.61799786
    12.33449726       14.64663243        0.09923277        0.84625095       10.00000000        6.59378100
    12.41680338       14.73089326        0.10049566        0.84569536       10.00000000        6.56967588
    12.49903047       14.81515409        0.10176513        0.84513814       10.00000000        6.54568212
    12.58117987       14.89941492        0.10304115        0.84457931       10.00000000        6.52179937
    12.66325286       14.98367575        0.10432373        0.84401886       10.00000000        6.49802724
    12.74525071       15.06793658        0.10561285        0.84345681       10.00000000        6.47436536
    12.82717463       15.15219740        0.10690849        0.84289316       10.00000000        6.45081335
    12.90902585       15.23645823        0.10821065        0.84232791       10.00000000        6.42737083
    12.99080549       15.32071906        0.10951932        0.84176106       10.00000000        6.40403741
    13.07251472       15.40497989        0.11083449        0.84119264       10.00000000        6.38081270
    13.15415463       15.48924072        0.11215614        0.84062263       10.00000000        6.35769631
    13.23572630       15.57350155        0.11348427        0.84005104       10.00000000        6.33468786
    13.31723077       15.65776238        0.11481886        0.83947788       10.00000000        6.31178693
    13.39866907       15.74202321        0.11615990        0.83890316       10.00000000        6.28899313
    13.48004220       15.82628404        0.11750738        0.83832687       10.00000000        6.26630606
    13.56135112       15.91054487        0.11886130        0.83774902       10.00000000        6.24372532
    13.64259679       15.99480570        0.12022163        0.83716962       10.00000000        6.22125048
    13.72378014       16.07906653        0.12158836        0.83658868       10.00000000        6.19888115
    13.80490205       16.16332736        0.12296150        0.83600618       10.00000000        6.17661690
    13.88596342       16.24758819        0.12434101        0.83542215       10.00000000        6.15445732
    13.96696509       16.33184902        0.12572690        0.83483658       10.00000000        6.13240199
    14.04790791       16.41610985        0.12711915        0.83424948       10.00000000        6.11045049
    14.12879271       16.50037068        0.12851775        0.83366085       10.00000000        6.08860239
    14.20962025       16.58463151        0.12992268        0.83307070       10.00000000        6.06685727
    14.29039136       16.66889234        0.13133394        0.83247903       10.00000000        6.04521469
    14.37110675       16.75315317        0.13275151        0.83188584       10.00000000        6.02367423
    14.45176720       16.83741400        0.13417538        0.83129114       10.00000000        6.00223545
    14.53237341       16.92167482        0.13560554        0.83069494       10.00000000        5.98089792
    14.61292610       17.00593565        0.13704198        0.83009723       10.00000000        5.95966120
    14.69342597       17.09019648        0.13848468        0.82949801       10.00000000        5.93852485
    14.77387368       17.17445731        0.13993363        0.82889731       10.00000000        5.91748843
    14.85426989       17.25871814        0.14138882        0.82829510       10.00000000        5.89655149
    14.93461526       17.34297897        0.14285024        0.82769141       10.00000000        5.87571359
    15.01491040       17.42723980        0.14431788        0.82708623       10.00000000        5.85497429
    15.09515594       17.51150063        0.14579171        0.82647957       10.00000000        5.83433314
    15.17535248       17.59576146        0.14727174        0.82587142       10.00000000        5.81378968
    15.25550061       17.68002229        0.14875794        0.82526180       10.00000000        5.79334347
    15.33560089       17.76428312        0.15025031        0.82465071       10.00000000        5.77299405
    15.41565389       17.84854395        0.15174883        0.82403814       10.00000000        5.75274098
    15.49566017       17.93280478        0.15325348        0.82342410       10.00000000        5.73258379
    15.57562026       18.01706561        0.15476427        0.82280860       10.00000000        5.71252204
    15.65553467       18.10132644        0.15628116        0.82219164       10.00000000        5.69255527
    15.73540394       18.18558727        0.15780416        0.82157322       10.00000000        5.67268302
    15.81522855       18.26984810        0.15933324        0.82095333       10.00000000        5.65290484
    15.89500900       18.35410893        0.16086840        0.82033200       10.00000000        5.63322026
    15.97474577       18.43836976        0.16240962        0.81970921       10.00000000        5.61362883
    16.05443933       18.52263059        0.16395688        0.81908497       10.00000000        5.59413009
    16.13409014       18.60689142        0.16551018        0.81845928       10.00000000        5.57472358
    16.21369864       18.69115224        0.16706950        0.81783215       10.00000000        5.55540884
    16.29326528       18.77541307        0.16863483        0.81720357       10.00000000        5.53618541
    16.37279048       18.85967390        0.17020615        0.81657355       10.00000000        5.51705283
    16.45227468       18.94393473        0.17178346        0.81594209       10.00000000        5.49801064
    16.53171827       19.02819556        0.17336673        0.81530920       10.00000000        5.47905837
    16.61112166       19.11245639        0.17495595        0.81467487       10.00000000        5.46019558
    16.69048525       19.19671722        0.17655111        0.81403910       10.00000000        5.44142179
    16.76980941       19.28097805        0.17815220        0.81340191       10.00000000        5.42273656
    16.84909453       19.36523888        0.17975920        0.81276328       10.00000000        5.40413941
    16.92834098       19.44949971        0.18137210        0.81212323       10.00000000        5.38562989
    17.00754912       19.53376054        0.18299089        0.81148174       10.00000000        5.36720754
    17.08671930       19.61802137        0.18461554        0.81083883       10.00000000        5.34887189
    17.16585186       19.70228220        0.18624606        0.81019450       10.00000000        5.33062250
    17.24494715       19.78654303        0.18788241        0.80954874       10.00000000        5.31245891
    17.32400549       19.87080386        0.18952459        0.80890157       10.00000000        5.29438064
    17.40302721       19.95506469        0.19117259        0.80825297       10.00000000        5.27638726
    17.48201264       20.03932552        0.19282639        0.80760295       10.00000000        5.25847830
    17.56096207       20.12358635        0.19448598        0.80695151       10.00000000        5.24065331
    17.63987581       20.20784718        0.19615133        0.80629866       10.00000000        5.22291183
    17.71875416       20.29210801        0.19782245        0.80564439       10.00000000        5.20525342
    17.79759741       20.37636884        0.19949930        0.80498870       10.00000000        5.18767760
    17.87640585       20.46062966        0.20118189        0.80433160       10.00000000        5.17018394
    17.95517976       20.54489049        0.20287019        0.80367309       10.00000000        5.15277199
    18.03391940       20.62915132        0.20456419        0.80301316       10.00000000        5.13544129
    18.11262504       20.71341215        0.20626387        0.80235181       10.00000000        5.11819139
    18.19129696       20.79767298        0.20796923        0.80168906       10.00000000        5.10102185
    18.26993539       20.88193381        0.20968024        0.80102489       10.00000000        5.08393222
