#  Theta paroi en deg Angle Choc en deg       Kp           Inverse Mach       Mach amont       Mach aval
     0.00000000       23.98541399        0.00000000        0.59349593        2.46000000
     1.80121770       23.98739443        0.00571906        0.59094206        2.46000000        2.45988367
     2.16936761       23.99016541        0.00781191        0.59001504        2.46000000        2.45972093
     2.56716390       23.99530803        0.01033783        0.58890145        2.46000000        2.45941897
     2.99705467       24.00440337        0.01335259        0.58757970        2.46000000        2.45888515
     3.44128197       24.01903253        0.01675743        0.58609637        2.46000000        2.45802719
     3.88930140       24.04077659        0.02047130        0.58448952        2.46000000        2.45675339
     4.33701458       24.07121665        0.02444897        0.58278105        2.46000000        2.45497304
     4.78371324       24.11193379        0.02867142        0.58098120        2.46000000        2.45259683
     5.23026356       24.16450912        0.03313661        0.57909281        2.46000000        2.44953732
     5.67821888       24.23052370        0.03785364        0.57711404        2.46000000        2.44570954
     6.05178138       24.29653829        0.04196502        0.57540241        2.46000000        2.44189694
     6.37707195       24.36255287        0.04567437        0.57386827        2.46000000        2.43809930
     6.66819425       24.42856746        0.04909471        0.57246191        2.46000000        2.43431643
     6.93370107       24.49458205        0.05229611        0.57115255        2.46000000        2.43054814
     7.17920221       24.56059663        0.05532532        0.56991966        2.46000000        2.42679422
     7.40859208       24.62661122        0.05821525        0.56874879        2.46000000        2.42305450
     7.62469353       24.69262580        0.06099009        0.56762933        2.46000000        2.41932877
     7.82962316       24.75864039        0.06366812        0.56655325        2.46000000        2.41561687
     8.02501217       24.82465498        0.06626360        0.56551430        2.46000000        2.41191860
     8.21214632       24.89066956        0.06878783        0.56450751        2.46000000        2.40823379
     8.39205858       24.95668415        0.07124996        0.56352887        2.46000000        2.40456227
     8.56559228       25.02269873        0.07365751        0.56257506        2.46000000        2.40090387
     8.73344560       25.08871332        0.07601675        0.56164333        2.46000000        2.39725841
     8.89620359       25.15472791        0.07833293        0.56073136        2.46000000        2.39362573
     9.05436175       25.22074249        0.08061055        0.55983718        2.46000000        2.39000566
     9.20834374       25.28675708        0.08285345        0.55895909        2.46000000        2.38639805
     9.35851481       25.35277166        0.08506495        0.55809562        2.46000000        2.38280274
     9.50519231       25.41878625        0.08724796        0.55724548        2.46000000        2.37921958
     9.64865379       25.48480084        0.08940501        0.55640755        2.46000000        2.37564840
     9.78914354       25.55081542        0.09153836        0.55558084        2.46000000        2.37208906
     9.92687777       25.61683001        0.09364999        0.55476445        2.46000000        2.36854142
    10.06204886       25.68284459        0.09574168        0.55395760        2.46000000        2.36500532
    10.19482874       25.74885918        0.09781500        0.55315958        2.46000000        2.36148063
    10.32537181       25.81487377        0.09987139        0.55236974        2.46000000        2.35796720
    10.45381721       25.88088835        0.10191214        0.55158752        2.46000000        2.35446489
    10.58029089       25.94690294        0.10393840        0.55081240        2.46000000        2.35097357
    10.70490716       26.01291752        0.10595123        0.55004388        2.46000000        2.34749311
    10.82777019       26.07893211        0.10795161        0.54928154        2.46000000        2.34402337
    10.94897514       26.14494670        0.10994040        0.54852497        2.46000000        2.34056422
    11.06860922       26.21096128        0.11191843        0.54777381        2.46000000        2.33711554
    11.18675252       26.27697587        0.11388641        0.54702773        2.46000000        2.33367720
    11.30347887       26.34299045        0.11584505        0.54628640        2.46000000        2.33024907
    11.41885638       26.40900504        0.11779497        0.54554954        2.46000000        2.32683104
    11.53294810       26.47501963        0.11973675        0.54481688        2.46000000        2.32342298
    11.64581250       26.54103421        0.12167093        0.54408817        2.46000000        2.32002478
    11.75750388       26.60704880        0.12359800        0.54336318        2.46000000        2.31663631
    11.86807280       26.67306338        0.12551844        0.54264169        2.46000000        2.31325748
    11.97756644       26.73907797        0.12743268        0.54192349        2.46000000        2.30988815
    12.08602881       26.80509256        0.12934111        0.54120841        2.46000000        2.30652823
    12.19350117       26.87110714        0.13124412        0.54049625        2.46000000        2.30317761
    12.30002211       26.93712173        0.13314205        0.53978686        2.46000000        2.29983617
    12.40562792       27.00313631        0.13503525        0.53908007        2.46000000        2.29650381
    12.51035263       27.06915090        0.13692401        0.53837573        2.46000000        2.29318043
    12.61422834       27.13516549        0.13880862        0.53767371        2.46000000        2.28986592
    12.71728526       27.20118007        0.14068937        0.53697387        2.46000000        2.28656019
    12.81955190       27.26719466        0.14256650        0.53627609        2.46000000        2.28326313
    12.92105519       27.33320924        0.14444026        0.53558024        2.46000000        2.27997465
    13.02182061       27.39922383        0.14631087        0.53488622        2.46000000        2.27669465
    13.12187228       27.46523842        0.14817856        0.53419392        2.46000000        2.27342303
    13.22123304       27.53125300        0.15004351        0.53350323        2.46000000        2.27015971
    13.31992461       27.59726759        0.15190593        0.53281407        2.46000000        2.26690458
    13.41796755       27.66328217        0.15376600        0.53212633        2.46000000        2.26365757
    13.51538145       27.72929676        0.15562388        0.53143992        2.46000000        2.26041858
    13.61218494       27.79531135        0.15747974        0.53075478        2.46000000        2.25718752
    13.70839575       27.86132593        0.15933374        0.53007080        2.46000000        2.25396431
    13.80403079       27.92734052        0.16118601        0.52938793        2.46000000        2.25074886
    13.89910618       27.99335510        0.16303671        0.52870608        2.46000000        2.24754109
    13.99363731       28.05936969        0.16488596        0.52802519        2.46000000        2.24434091
    14.08763888       28.12538428        0.16673388        0.52734518        2.46000000        2.24114824
    14.18112495       28.19139886        0.16858060        0.52666599        2.46000000        2.23796301
    14.27410897       28.25741345        0.17042623        0.52598757        2.46000000        2.23478513
    14.36660381       28.32342803        0.17227087        0.52530984        2.46000000        2.23161453
    14.45862181       28.38944262        0.17411464        0.52463276        2.46000000        2.22845113
    14.55017480       28.45545721        0.17595762        0.52395627        2.46000000        2.22529486
    14.64127412       28.52147179        0.17779991        0.52328031        2.46000000        2.22214563
    14.73193065       28.58748638        0.17964161        0.52260484        2.46000000        2.21900338
    14.82215484       28.65350096        0.18148279        0.52192980        2.46000000        2.21586803
    14.91195676       28.71951555        0.18332354        0.52125515        2.46000000        2.21273952
    15.00134605       28.78553014        0.18516393        0.52058084        2.46000000        2.20961777
    15.09033201       28.85154472        0.18700403        0.51990683        2.46000000        2.20650272
    15.17892359       28.91755931        0.18884393        0.51923307        2.46000000        2.20339429
    15.26712941       28.98357389        0.19068369        0.51855953        2.46000000        2.20029242
    15.35495775       29.04958848        0.19252336        0.51788616        2.46000000        2.19719704
    15.44241663       29.11560307        0.19436302        0.51721292        2.46000000        2.19410809
    15.52951376       29.18161765        0.19620272        0.51653978        2.46000000        2.19102551
    15.61625659       29.24763224        0.19804251        0.51586670        2.46000000        2.18794922
    15.70265229       29.31364682        0.19988246        0.51519364        2.46000000        2.18487917
    15.78870783       29.37966141        0.20172261        0.51452058        2.46000000        2.18181530
    15.87442990       29.44567600        0.20356302        0.51384747        2.46000000        2.17875755
    15.95982498       29.51169058        0.20540373        0.51317428        2.46000000        2.17570585
    16.04489935       29.57770517        0.20724478        0.51250099        2.46000000        2.17266015
    16.12965905       29.64371975        0.20908622        0.51182757        2.46000000        2.16962038
    16.21410998       29.70973434        0.21092810        0.51115397        2.46000000        2.16658650
    16.29825779       29.77574893        0.21277044        0.51048018        2.46000000        2.16355845
    16.38210800       29.84176351        0.21461329        0.50980617        2.46000000        2.16053616
    16.46566592       29.90777810        0.21645669        0.50913191        2.46000000        2.15751960
    16.54893674       29.97379268        0.21830068        0.50845737        2.46000000        2.15450869
    16.63192545       30.03980727        0.22014527        0.50778252        2.46000000        2.15150339
    16.71463690       30.10582186        0.22199051        0.50710735        2.46000000        2.14850365
    16.79707582       30.17183644        0.22383643        0.50643182        2.46000000        2.14550941
    16.87924676       30.23785103        0.22568306        0.50575591        2.46000000        2.14252063
    16.96115417       30.30386561        0.22753042        0.50507961        2.46000000        2.13953724
    17.04280235       30.36988020        0.22937854        0.50440288        2.46000000        2.13655922
    17.12419550       30.43589479        0.23122745        0.50372570        2.46000000        2.13358649
    17.20533766       30.50190937        0.23307717        0.50304806        2.46000000        2.13061903
    17.28623281       30.56792396        0.23492773        0.50236992        2.46000000        2.12765677
    17.36688476       30.63393854        0.23677915        0.50169127        2.46000000        2.12469968
    17.44729728       30.69995313        0.23863145        0.50101210        2.46000000        2.12174770
    17.52747398       30.76596772        0.24048465        0.50033237        2.46000000        2.11880079
    17.60741840       30.83198230        0.24233877        0.49965207        2.46000000        2.11585891
    17.68713398       30.89799689        0.24419383        0.49897118        2.46000000        2.11292201
    17.76662408       30.96401147        0.24604985        0.49828968        2.46000000        2.10999005
    17.84589194       31.03002606        0.24790684        0.49760755        2.46000000        2.10706299
    17.92494074       31.09604065        0.24976483        0.49692478        2.46000000        2.10414077
    18.00377359       31.16205523        0.25162383        0.49624134        2.46000000        2.10122337
    18.08239349       31.22806982        0.25348384        0.49555722        2.46000000        2.09831074
    18.16080338       31.29408440        0.25534490        0.49487240        2.46000000        2.09540283
    18.23900612       31.36009899        0.25720701        0.49418687        2.46000000        2.09249962
    18.31700451       31.42611358        0.25907018        0.49350061        2.46000000        2.08960105
    18.39480126       31.49212816        0.26093443        0.49281360        2.46000000        2.08670710
    18.47239904       31.55814275        0.26279976        0.49212582        2.46000000        2.08381772
    18.54980043       31.62415733        0.26466620        0.49143727        2.46000000        2.08093287
    18.62700796       31.69017192        0.26653374        0.49074792        2.46000000        2.07805251
    18.70402410       31.75618651        0.26840240        0.49005776        2.46000000        2.07517662
    18.78085127       31.82220109        0.27027220        0.48936678        2.46000000        2.07230515
    18.85749180       31.88821568        0.27214313        0.48867495        2.46000000        2.06943807
    18.93394799       31.95423026        0.27401521        0.48798228        2.46000000        2.06657534
    19.01022210       32.02024485        0.27588845        0.48728873        2.46000000        2.06371692
    19.08631631       32.08625944        0.27776284        0.48659430        2.46000000        2.06086279
    19.16223276       32.15227402        0.27963841        0.48589898        2.46000000        2.05801291
    19.23797356       32.21828861        0.28151516        0.48520275        2.46000000        2.05516724
    19.31354073       32.28430319        0.28339308        0.48450559        2.46000000        2.05232575
    19.38893628       32.35031778        0.28527220        0.48380750        2.46000000        2.04948841
    19.46416217       32.41633237        0.28715251        0.48310846        2.46000000        2.04665519
    19.53922031       32.48234695        0.28903402        0.48240846        2.46000000        2.04382606
    19.61411257       32.54836154        0.29091673        0.48170749        2.46000000        2.04100098
    19.68884078       32.61437612        0.29280065        0.48100553        2.46000000        2.03817992
    19.76340672       32.68039071        0.29468578        0.48030256        2.46000000        2.03536286
    19.83781216       32.74640530        0.29657213        0.47959859        2.46000000        2.03254975
    19.91205879       32.81241988        0.29845969        0.47889359        2.46000000        2.02974058
    19.98614831       32.87843447        0.30034848        0.47818756        2.46000000        2.02693532
    20.06008235       32.94444905        0.30223850        0.47748048        2.46000000        2.02413393
    20.13386252       33.01046364        0.30412974        0.47677235        2.46000000        2.02133638
    20.20749038       33.07647823        0.30602220        0.47606314        2.46000000        2.01854265
    20.28096751       33.14249281        0.30791590        0.47535285        2.46000000        2.01575272
    20.35429538       33.20850740        0.30981084        0.47464147        2.46000000        2.01296654
    20.42747548       33.27452198        0.31170700        0.47392898        2.46000000        2.01018411
    20.50050927       33.34053657        0.31360440        0.47321538        2.46000000        2.00740538
    20.57339817       33.40655116        0.31550304        0.47250066        2.46000000        2.00463033
    20.64614356       33.47256574        0.31740291        0.47178480        2.46000000        2.00185895
    20.71874680       33.53858033        0.31930401        0.47106779        2.46000000        1.99909119
    20.79120924       33.60459491        0.32120636        0.47034962        2.46000000        1.99632704
    20.86353217       33.67060950        0.32310994        0.46963029        2.46000000        1.99356648
    20.93571690       33.73662409        0.32501475        0.46890978        2.46000000        1.99080947
    21.00776467       33.80263867        0.32692080        0.46818808        2.46000000        1.98805599
    21.07967672       33.86865326        0.32882808        0.46746518        2.46000000        1.98530602
    21.15145427       33.93466784        0.33073659        0.46674107        2.46000000        1.98255953
    21.22309849       34.00068243        0.33264633        0.46601575        2.46000000        1.97981651
    21.29461055       34.06669702        0.33455731        0.46528919        2.46000000        1.97707693
    21.36599160       34.13271160        0.33646951        0.46456140        2.46000000        1.97434076
    21.43724276       34.19872619        0.33838294        0.46383236        2.46000000        1.97160799
    21.50836512       34.26474077        0.34029759        0.46310206        2.46000000        1.96887859
    21.57935976       34.33075536        0.34221346        0.46237050        2.46000000        1.96615253
    21.65022775       34.39676995        0.34413056        0.46163766        2.46000000        1.96342981
    21.72097011       34.46278453        0.34604887        0.46090353        2.46000000        1.96071039
    21.79158788       34.52879912        0.34796839        0.46016811        2.46000000        1.95799426
    21.86208205       34.59481370        0.34988913        0.45943138        2.46000000        1.95528140
    21.93245360       34.66082829        0.35181107        0.45869334        2.46000000        1.95257178
    22.00270350       34.72684288        0.35373422        0.45795398        2.46000000        1.94986538
    22.07283269       34.79285746        0.35565856        0.45721328        2.46000000        1.94716219
    22.14284211       34.85887205        0.35758411        0.45647124        2.46000000        1.94446219
    22.21273267       34.92488663        0.35951085        0.45572786        2.46000000        1.94176535
    22.28250527       34.99090122        0.36143879        0.45498311        2.46000000        1.93907166
    22.35216077       35.05691581        0.36336791        0.45423699        2.46000000        1.93638109
    22.42170006       35.12293039        0.36529821        0.45348950        2.46000000        1.93369364
    22.49112397       35.18894498        0.36722969        0.45274063        2.46000000        1.93100927
    22.56043335       35.25495957        0.36916234        0.45199035        2.46000000        1.92832798
    22.62962900       35.32097415        0.37109617        0.45123868        2.46000000        1.92564974
    22.69871174       35.38698874        0.37303116        0.45048559        2.46000000        1.92297455
    22.76768235       35.45300332        0.37496731        0.44973109        2.46000000        1.92030236
    22.83654162       35.51901791        0.37690461        0.44897515        2.46000000        1.91763319
    22.90529031       35.58503250        0.37884307        0.44821778        2.46000000        1.91496700
    22.97392915       35.65104708        0.38078267        0.44745896        2.46000000        1.91230377
    23.04245891       35.71706167        0.38272342        0.44669868        2.46000000        1.90964350
    23.11088028       35.78307625        0.38466529        0.44593695        2.46000000        1.90698616
    23.17919400       35.84909084        0.38660830        0.44517374        2.46000000        1.90433175
