#  Theta paroi en deg Angle Choc en deg       Kp           Inverse Mach       Mach amont       Mach aval
     0.00000000       33.53774360        0.00000000        0.44751381        1.81000000
     2.08155661       33.53943747        0.00826254        0.44374293        1.81000000        1.80993202
     2.48486255       33.54180749        0.01115464        0.44242628        1.81000000        1.80983692
     2.93018649       33.54620597        0.01471920        0.44080573        1.81000000        1.80966044
     3.41625962       33.55398521        0.01902131        0.43885304        1.81000000        1.80934840
     3.92051204       33.56649752        0.02390656        0.43663975        1.81000000        1.80884672
     4.42916651       33.58509522        0.02924271        0.43422691        1.81000000        1.80810154
     4.93625453       33.61113059        0.03494797        0.43165241        1.81000000        1.80705931
     5.43997017       33.64595595        0.04097807        0.42893690        1.81000000        1.80566697
     5.94048353       33.69092361        0.04731299        0.42608996        1.81000000        1.80387213
     6.43885920       33.74738586        0.05394840        0.42311400        1.81000000        1.80162321
     6.85124426       33.80384812        0.05967862        0.42054868        1.81000000        1.79937952
     7.20775561       33.86031038        0.06480321        0.41825791        1.81000000        1.79714102
     7.52467857       33.91677263        0.06948926        0.41616585        1.81000000        1.79490766
     7.81189957       33.97323489        0.07384066        0.41422535        1.81000000        1.79267941
     8.07590851       34.02969715        0.07792698        0.41240484        1.81000000        1.79045622
     8.32121389       34.08615940        0.08179738        0.41068203        1.81000000        1.78823806
     8.55108548       34.14262166        0.08548800        0.40904054        1.81000000        1.78602489
     8.76797615       34.19908392        0.08902630        0.40746790        1.81000000        1.78381667
     8.97377708       34.25554617        0.09243370        0.40595442        1.81000000        1.78161336
     9.16997952       34.31200843        0.09572723        0.40449236        1.81000000        1.77941492
     9.35778195       34.36847069        0.09892073        0.40307545        1.81000000        1.77722133
     9.53816308       34.42493294        0.10202557        0.40169854        1.81000000        1.77503253
     9.71193345       34.48139520        0.10505124        0.40035731        1.81000000        1.77284850
     9.87977241       34.53785745        0.10800576        0.39904814        1.81000000        1.77066920
    10.04225555       34.59431971        0.11089595        0.39776792        1.81000000        1.76849460
    10.19987504       34.65078197        0.11372768        0.39651400        1.81000000        1.76632465
    10.35305538       34.70724422        0.11650604        0.39528405        1.81000000        1.76415932
    10.50216539       34.76370648        0.11923548        0.39407606        1.81000000        1.76199859
    10.64752778       34.82016874        0.12191991        0.39288825        1.81000000        1.75984241
    10.78942661       34.87663099        0.12456276        0.39171906        1.81000000        1.75769075
    10.92811336       34.93309325        0.12716712        0.39056709        1.81000000        1.75554358
    11.06381183       34.98955551        0.12973572        0.38943108        1.81000000        1.75340087
    11.19672208       35.04601776        0.13227101        0.38830993        1.81000000        1.75126257
    11.32702377       35.10248002        0.13477522        0.38720261        1.81000000        1.74912867
    11.45487888       35.15894227        0.13725034        0.38610823        1.81000000        1.74699913
    11.58043403       35.21540453        0.13969818        0.38502594        1.81000000        1.74487391
    11.70382233       35.27186679        0.14212041        0.38395499        1.81000000        1.74275298
    11.82516509       35.32832904        0.14451852        0.38289469        1.81000000        1.74063632
    11.94457315       35.38479130        0.14689391        0.38184440        1.81000000        1.73852390
    12.06214809       35.44125356        0.14924784        0.38080355        1.81000000        1.73641567
    12.17798328       35.49771581        0.15158148        0.37977160        1.81000000        1.73431162
    12.29216468       35.55417807        0.15389590        0.37874805        1.81000000        1.73221171
    12.40477173       35.61064033        0.15619211        0.37773244        1.81000000        1.73011592
    12.51587791       35.66710258        0.15847103        0.37672434        1.81000000        1.72802420
    12.62555135       35.72356484        0.16073351        0.37572337        1.81000000        1.72593655
    12.73385542       35.78002710        0.16298036        0.37472914        1.81000000        1.72385292
    12.84084904       35.83648935        0.16521231        0.37374132        1.81000000        1.72177328
    12.94658723       35.89295161        0.16743007        0.37275957        1.81000000        1.71969762
    13.05112134       35.94941386        0.16963427        0.37178361        1.81000000        1.71762590
    13.15449947       36.00587612        0.17182554        0.37081315        1.81000000        1.71555809
    13.25676668       36.06233838        0.17400443        0.36984791        1.81000000        1.71349417
    13.35796525       36.11880063        0.17617148        0.36888766        1.81000000        1.71143411
    13.45813495       36.17526289        0.17832720        0.36793215        1.81000000        1.70937788
    13.55731319       36.23172515        0.18047206        0.36698116        1.81000000        1.70732546
    13.65553524       36.28818740        0.18260651        0.36603448        1.81000000        1.70527683
    13.75283437       36.34464966        0.18473096        0.36509192        1.81000000        1.70323194
    13.84924201       36.40111192        0.18684581        0.36415327        1.81000000        1.70119079
    13.94478790       36.45757417        0.18895145        0.36321838        1.81000000        1.69915334
    14.03950019       36.51403643        0.19104823        0.36228705        1.81000000        1.69711956
    14.13340554       36.57049868        0.19313648        0.36135914        1.81000000        1.69508945
    14.22652929       36.62696094        0.19521653        0.36043449        1.81000000        1.69306296
    14.31889546       36.68342320        0.19728867        0.35951296        1.81000000        1.69104007
    14.41052691       36.73988545        0.19935321        0.35859440        1.81000000        1.68902077
    14.50144537       36.79634771        0.20141040        0.35767868        1.81000000        1.68700502
    14.59167155       36.85280997        0.20346052        0.35676568        1.81000000        1.68499280
    14.68122519       36.90927222        0.20550381        0.35585528        1.81000000        1.68298410
    14.77012510       36.96573448        0.20754050        0.35494736        1.81000000        1.68097887
    14.85838924       37.02219674        0.20957084        0.35404180        1.81000000        1.67897712
    14.94603478       37.07865899        0.21159502        0.35313851        1.81000000        1.67697880
    15.03307812       37.13512125        0.21361326        0.35223738        1.81000000        1.67498390
    15.11953495       37.19158351        0.21562575        0.35133831        1.81000000        1.67299239
    15.20542032       37.24804576        0.21763268        0.35044122        1.81000000        1.67100426
    15.29074859       37.30450802        0.21963423        0.34954600        1.81000000        1.66901948
    15.37553358       37.36097027        0.22163058        0.34865258        1.81000000        1.66703803
    15.45978850       37.41743253        0.22362188        0.34776087        1.81000000        1.66505989
    15.54352608       37.47389479        0.22560830        0.34687079        1.81000000        1.66308503
    15.62675849       37.53035704        0.22758999        0.34598227        1.81000000        1.66111344
    15.70949747       37.58681930        0.22956709        0.34509523        1.81000000        1.65914509
    15.79175427       37.64328156        0.23153974        0.34420959        1.81000000        1.65717997
    15.87353973       37.69974381        0.23350808        0.34332530        1.81000000        1.65521805
    15.95486429       37.75620607        0.23547223        0.34244227        1.81000000        1.65325931
    16.03573797       37.81266833        0.23743232        0.34156046        1.81000000        1.65130373
    16.11617047       37.86913058        0.23938847        0.34067979        1.81000000        1.64935130
    16.19617111       37.92559284        0.24134079        0.33980021        1.81000000        1.64740199
    16.27574887       37.98205509        0.24328939        0.33892166        1.81000000        1.64545579
    16.35491243       38.03851735        0.24523438        0.33804408        1.81000000        1.64351267
    16.43367016       38.09497961        0.24717585        0.33716742        1.81000000        1.64157261
    16.51203014       38.15144186        0.24911392        0.33629162        1.81000000        1.63963561
    16.59000018       38.20790412        0.25104866        0.33541664        1.81000000        1.63770163
    16.66758784       38.26436638        0.25298018        0.33454242        1.81000000        1.63577065
    16.74480039       38.32082863        0.25490856        0.33366892        1.81000000        1.63384267
    16.82164491       38.37729089        0.25683388        0.33279608        1.81000000        1.63191766
    16.89812821       38.43375315        0.25875623        0.33192388        1.81000000        1.62999561
    16.97425689       38.49021540        0.26067568        0.33105225        1.81000000        1.62807649
    17.05003736       38.54667766        0.26259232        0.33018115        1.81000000        1.62616029
    17.12547581       38.60313992        0.26450621        0.32931056        1.81000000        1.62424699
    17.20057823       38.65960217        0.26641743        0.32844042        1.81000000        1.62233657
    17.27535046       38.71606443        0.26832604        0.32757069        1.81000000        1.62042902
    17.34979813       38.77252668        0.27023211        0.32670135        1.81000000        1.61852432
    17.42392669       38.82898894        0.27213570        0.32583234        1.81000000        1.61662245
    17.49774147       38.88545120        0.27403688        0.32496364        1.81000000        1.61472340
    17.57124761       38.94191345        0.27593571        0.32409520        1.81000000        1.61282715
    17.64445011       38.99837571        0.27783224        0.32322700        1.81000000        1.61093368
    17.71735383       39.05483797        0.27972653        0.32235900        1.81000000        1.60904297
    17.78996347       39.11130022        0.28161864        0.32149117        1.81000000        1.60715502
    17.86228361       39.16776248        0.28350861        0.32062348        1.81000000        1.60526980
    17.93431871       39.22422474        0.28539650        0.31975589        1.81000000        1.60338729
    18.00607310       39.28068699        0.28728235        0.31888837        1.81000000        1.60150749
    18.07755098       39.33714925        0.28916622        0.31802090        1.81000000        1.59963038
    18.14875643       39.39361150        0.29104814        0.31715344        1.81000000        1.59775594
    18.21969345       39.45007376        0.29292817        0.31628597        1.81000000        1.59588416
    18.29036591       39.50653602        0.29480635        0.31541845        1.81000000        1.59401501
    18.36077757       39.56299827        0.29668271        0.31455087        1.81000000        1.59214850
    18.43093210       39.61946053        0.29855730        0.31368320        1.81000000        1.59028459
    18.50083308       39.67592279        0.30043016        0.31281540        1.81000000        1.58842329
    18.57048399       39.73238504        0.30230133        0.31194746        1.81000000        1.58656456
    18.63988822       39.78884730        0.30417084        0.31107934        1.81000000        1.58470840
    18.70904908       39.84530956        0.30603873        0.31021103        1.81000000        1.58285480
    18.77796978       39.90177181        0.30790503        0.30934250        1.81000000        1.58100374
    18.84665346       39.95823407        0.30976978        0.30847372        1.81000000        1.57915520
    18.91510319       40.01469633        0.31163300        0.30760468        1.81000000        1.57730917
    18.98332194       40.07115858        0.31349474        0.30673535        1.81000000        1.57546565
    19.05131263       40.12762084        0.31535502        0.30586571        1.81000000        1.57362460
    19.11907809       40.18408309        0.31721386        0.30499574        1.81000000        1.57178603
    19.18662112       40.24054535        0.31907131        0.30412541        1.81000000        1.56994992
    19.25394439       40.29700761        0.32092739        0.30325471        1.81000000        1.56811625
    19.32105056       40.35346986        0.32278212        0.30238361        1.81000000        1.56628501
    19.38794220       40.40993212        0.32463553        0.30151209        1.81000000        1.56445619
    19.45462183       40.46639438        0.32648764        0.30064014        1.81000000        1.56262977
    19.52109191       40.52285663        0.32833849        0.29976774        1.81000000        1.56080575
    19.58735483       40.57931889        0.33018809        0.29889486        1.81000000        1.55898411
    19.65341295       40.63578115        0.33203646        0.29802149        1.81000000        1.55716483
    19.71926855       40.69224340        0.33388364        0.29714760        1.81000000        1.55534792
    19.78492388       40.74870566        0.33572964        0.29627319        1.81000000        1.55353334
    19.85038112       40.80516791        0.33757448        0.29539823        1.81000000        1.55172110
    19.91564241       40.86163017        0.33941819        0.29452271        1.81000000        1.54991117
    19.98070985       40.91809243        0.34126077        0.29364660        1.81000000        1.54810355
    20.04558548       40.97455468        0.34310227        0.29276989        1.81000000        1.54629823
    20.11027130       41.03101694        0.34494268        0.29189257        1.81000000        1.54449519
    20.17476927       41.08747920        0.34678203        0.29101461        1.81000000        1.54269442
    20.23908131       41.14394145        0.34862034        0.29013600        1.81000000        1.54089591
    20.30320928       41.20040371        0.35045762        0.28925673        1.81000000        1.53909965
    20.36715502       41.25686597        0.35229390        0.28837678        1.81000000        1.53730563
    20.43092033       41.31332822        0.35412918        0.28749613        1.81000000        1.53551383
    20.49450695       41.36979048        0.35596348        0.28661477        1.81000000        1.53372425
    20.55791661       41.42625274        0.35779682        0.28573269        1.81000000        1.53193688
    20.62115099       41.48271499        0.35962921        0.28484986        1.81000000        1.53015170
    20.68421173       41.53917725        0.36146067        0.28396627        1.81000000        1.52836870
    20.74710045       41.59563950        0.36329121        0.28308191        1.81000000        1.52658787
    20.80981874       41.65210176        0.36512084        0.28219677        1.81000000        1.52480921
    20.87236812       41.70856402        0.36694957        0.28131083        1.81000000        1.52303269
    20.93475013       41.76502627        0.36877743        0.28042407        1.81000000        1.52125832
    20.99696624       41.82148853        0.37060441        0.27953649        1.81000000        1.51948608
    21.05901791       41.87795079        0.37243054        0.27864806        1.81000000        1.51771595
    21.12090657       41.93441304        0.37425582        0.27775878        1.81000000        1.51594794
    21.18263361       41.99087530        0.37608027        0.27686864        1.81000000        1.51418203
    21.24420039       42.04733756        0.37790389        0.27597761        1.81000000        1.51241821
    21.30560827       42.10379981        0.37972670        0.27508568        1.81000000        1.51065647
    21.36685856       42.16026207        0.38154870        0.27419285        1.81000000        1.50889680
    21.42795254       42.21672432        0.38336990        0.27329910        1.81000000        1.50713919
    21.48889148       42.27318658        0.38519033        0.27240442        1.81000000        1.50538363
    21.54967661       42.32964884        0.38700997        0.27150879        1.81000000        1.50363012
    21.61030916       42.38611109        0.38882884        0.27061221        1.81000000        1.50187864
    21.67079031       42.44257335        0.39064696        0.26971466        1.81000000        1.50012918
    21.73112123       42.49903561        0.39246432        0.26881612        1.81000000        1.49838174
    21.79130308       42.55549786        0.39428094        0.26791660        1.81000000        1.49663630
    21.85133696       42.61196012        0.39609682        0.26701606        1.81000000        1.49489286
    21.91122399       42.66842238        0.39791198        0.26611451        1.81000000        1.49315140
    21.97096525       42.72488463        0.39972641        0.26521194        1.81000000        1.49141193
    22.03056179       42.78134689        0.40154012        0.26430832        1.81000000        1.48967442
    22.09001466       42.83780915        0.40335313        0.26340365        1.81000000        1.48793888
    22.14932488       42.89427140        0.40516543        0.26249792        1.81000000        1.48620529
    22.20849346       42.95073366        0.40697703        0.26159112        1.81000000        1.48447364
    22.26752137       43.00719591        0.40878795        0.26068323        1.81000000        1.48274393
    22.32640958       43.06365817        0.41059817        0.25977425        1.81000000        1.48101615
    22.38515904       43.12012043        0.41240772        0.25886416        1.81000000        1.47929028
    22.44377068       43.17658268        0.41421659        0.25795295        1.81000000        1.47756633
    22.50224541       43.23304494        0.41602479        0.25704062        1.81000000        1.47584428
    22.56058412       43.28950720        0.41783233        0.25612715        1.81000000        1.47412412
    22.61878771       43.34596945        0.41963920        0.25521253        1.81000000        1.47240585
    22.67685702       43.40243171        0.42144542        0.25429675        1.81000000        1.47068946
    22.73479291       43.45889397        0.42325098        0.25337980        1.81000000        1.46897494
    22.79259622       43.51535622        0.42505590        0.25246167        1.81000000        1.46726229
    22.85026775       43.57181848        0.42686016        0.25154236        1.81000000        1.46555148
    22.90780830       43.62828074        0.42866379        0.25062184        1.81000000        1.46384253
    22.96521868       43.68474299        0.43046678        0.24970011        1.81000000        1.46213542
