#  Theta paroi en deg Angle Choc en deg       Kp           Inverse Mach       Mach amont       Mach aval
     0.00000000       65.38002267        0.00000000        0.09090909        1.10000000
     1.96831521       65.38076127        0.01023427        0.08510831        1.10000000        1.09998888
     2.10897853       65.38179470        0.01157182        0.08434675        1.10000000        1.09997333
     2.31730757       65.38371263        0.01367797        0.08314594        1.10000000        1.09994447
     2.59064287       65.38710471        0.01666146        0.08144150        1.10000000        1.09989342
     2.90596804       65.39256062        0.02040329        0.07929810        1.10000000        1.09981134
     3.24300694       65.40067002        0.02474590        0.07680251        1.10000000        1.09968937
     3.58934332       65.41202256        0.02956554        0.07402256        1.10000000        1.09951868
     3.93828547       65.42720792        0.03477683        0.07100447        1.10000000        1.09929049
     4.28640311       65.44681576        0.04032218        0.06777878        1.10000000        1.09899605
     4.63199880       65.47143574        0.04616218        0.06436573        1.10000000        1.09862668
     4.91588353       65.49605571        0.05120478        0.06140536        1.10000000        1.09825768
     5.15910518       65.52067569        0.05569901        0.05875639        1.10000000        1.09788905
     5.37322988       65.54529567        0.05978735        0.05633792        1.10000000        1.09752078
     5.56535871       65.56991564        0.06356017        0.05409866        1.10000000        1.09715288
     5.74019285       65.59453562        0.06707891        0.05200371        1.10000000        1.09678535
     5.90102039       65.61915560        0.07038755        0.05002806        1.10000000        1.09641818
     6.05023933       65.64377558        0.07351885        0.04815313        1.10000000        1.09605139
     6.18965708       65.66839555        0.07649793        0.04636463        1.10000000        1.09568496
     6.32067286       65.69301553        0.07934456        0.04465131        1.10000000        1.09531890
     6.44439396       65.71763551        0.08207462        0.04300415        1.10000000        1.09495320
     6.56171313       65.74225549        0.08470109        0.04141577        1.10000000        1.09458787
     6.67336154       65.76687546        0.08723475        0.03988005        1.10000000        1.09422291
     6.77994628       65.79149544        0.08968462        0.03839184        1.10000000        1.09385832
     6.88197743       65.81611542        0.09205839        0.03694677        1.10000000        1.09349409
     6.97988813       65.84073540        0.09436266        0.03554111        1.10000000        1.09313023
     7.07404949       65.86535537        0.09660311        0.03417159        1.10000000        1.09276674
     7.16478221       65.88997535        0.09878472        0.03283541        1.10000000        1.09240361
     7.25236549       65.91459533        0.10091186        0.03153007        1.10000000        1.09204085
     7.33704396       65.93921530        0.10298837        0.03025339        1.10000000        1.09167845
     7.41903338       65.96383528        0.10501768        0.02900340        1.10000000        1.09131642
     7.49852500       65.98845526        0.10700286        0.02777839        1.10000000        1.09095476
     7.57568930       66.01307524        0.10894665        0.02657677        1.10000000        1.09059346
     7.65067888       66.03769521        0.11085152        0.02539714        1.10000000        1.09023253
     7.72363100       66.06231519        0.11271971        0.02423824        1.10000000        1.08987196
     7.79466952       66.08693517        0.11455326        0.02309889        1.10000000        1.08951176
     7.86390673       66.11155515        0.11635402        0.02197805        1.10000000        1.08915193
     7.93144469       66.13617512        0.11812368        0.02087475        1.10000000        1.08879246
     7.99737652       66.16079510        0.11986382        0.01978811        1.10000000        1.08843335
     8.06178741       66.18541508        0.12157584        0.01871731        1.10000000        1.08807461
     8.12475551       66.21003506        0.12326108        0.01766161        1.10000000        1.08771624
     8.18635273       66.23465503        0.12492075        0.01662030        1.10000000        1.08735823
     8.24664537       66.25927501        0.12655598        0.01559275        1.10000000        1.08700058
     8.30569472       66.28389499        0.12816782        0.01457836        1.10000000        1.08664330
     8.36355755       66.30851496        0.12975725        0.01357658        1.10000000        1.08628639
     8.42028658       66.33313494        0.13132518        0.01258688        1.10000000        1.08592984
     8.47593083       66.35775492        0.13287246        0.01160878        1.10000000        1.08557365
     8.53053598       66.38237490        0.13439989        0.01064184        1.10000000        1.08521783
     8.58414469       66.40699487        0.13590821        0.00968562        1.10000000        1.08486238
     8.63679684       66.43161485        0.13739811        0.00873973        1.10000000        1.08450728
     8.68852980       66.45623483        0.13887027        0.00780379        1.10000000        1.08415255
     8.73937860       66.48085481        0.14032530        0.00687746        1.10000000        1.08379819
     8.78937616       66.50547478        0.14176378        0.00596040        1.10000000        1.08344419
     8.83855347       66.53009476        0.14318626        0.00505229        1.10000000        1.08309055
     8.88693969       66.55471474        0.14459328        0.00415284        1.10000000        1.08273728
     8.93456235       66.57933472        0.14598531        0.00326178        1.10000000        1.08238437
     8.98144744       66.60395469        0.14736283        0.00237883        1.10000000        1.08203182
     9.02761952       66.62857467        0.14872629        0.00150375        1.10000000        1.08167964
     9.07310187       66.65319465        0.15007610        0.00063628        1.10000000        1.08132782
     9.11791653       66.67781462        0.15141265       -0.00022378        1.10000000        1.08097637
     9.16208440       66.70243460        0.15273635       -0.00107666        1.10000000        1.08062528
     9.20562533       66.72705458        0.15404754       -0.00192257        1.10000000        1.08027455
     9.24855818       66.75167456        0.15534657       -0.00276170        1.10000000        1.07992418
     9.29090094       66.77629453        0.15663377       -0.00359423        1.10000000        1.07957418
     9.33267065       66.80091451        0.15790946       -0.00442035        1.10000000        1.07922454
     9.37388364       66.82553449        0.15917394       -0.00524023        1.10000000        1.07887526
     9.41455542       66.85015447        0.16042749       -0.00605402        1.10000000        1.07852635
     9.45470083       66.87477444        0.16167039       -0.00686190        1.10000000        1.07817780
     9.49433404       66.89939442        0.16290290       -0.00766399        1.10000000        1.07782961
     9.53346860       66.92401440        0.16412528       -0.00846045        1.10000000        1.07748179
     9.57211745       66.94863438        0.16533777       -0.00925142        1.10000000        1.07713432
     9.61029300       66.97325435        0.16654060       -0.01003702        1.10000000        1.07678722
     9.64800715       66.99787433        0.16773399       -0.01081739        1.10000000        1.07644048
     9.68527129       67.02249431        0.16891816       -0.01159264        1.10000000        1.07609411
     9.72209634       67.04711428        0.17009331       -0.01236289        1.10000000        1.07574809
     9.75849281       67.07173426        0.17125965       -0.01312825        1.10000000        1.07540244
     9.79447076       67.09635424        0.17241736       -0.01388883        1.10000000        1.07505715
     9.83003989       67.12097422        0.17356663       -0.01464474        1.10000000        1.07471222
     9.86520951       67.14559419        0.17470764       -0.01539607        1.10000000        1.07436766
     9.89998856       67.17021417        0.17584054       -0.01614292        1.10000000        1.07402345
     9.93438569       67.19483415        0.17696552       -0.01688539        1.10000000        1.07367961
     9.96840918       67.21945413        0.17808273       -0.01762355        1.10000000        1.07333613
    10.00206707       67.24407410        0.17919232       -0.01835751        1.10000000        1.07299301
    10.03536707       67.26869408        0.18029445       -0.01908734        1.10000000        1.07265025
    10.06831660       67.29331406        0.18138924       -0.01981313        1.10000000        1.07230786
    10.10092286       67.31793403        0.18247685       -0.02053495        1.10000000        1.07196582
    10.13319280       67.34255401        0.18355741       -0.02125287        1.10000000        1.07162415
    10.16513309       67.36717399        0.18463104       -0.02196698        1.10000000        1.07128284
    10.19675022       67.39179397        0.18569787       -0.02267734        1.10000000        1.07094189
    10.22805045       67.41641394        0.18675803       -0.02338401        1.10000000        1.07060130
    10.25903981       67.44103392        0.18781163       -0.02408708        1.10000000        1.07026107
    10.28972419       67.46565390        0.18885878       -0.02478659        1.10000000        1.06992120
    10.32010924       67.49027388        0.18989960       -0.02548261        1.10000000        1.06958170
    10.35020044       67.51489385        0.19093419       -0.02617521        1.10000000        1.06924255
    10.38000311       67.53951383        0.19196265       -0.02686444        1.10000000        1.06890377
    10.40952240       67.56413381        0.19298510       -0.02755035        1.10000000        1.06856534
    10.43876330       67.58875379        0.19400162       -0.02823301        1.10000000        1.06822728
    10.46773067       67.61337376        0.19501231       -0.02891246        1.10000000        1.06788958
    10.49642918       67.63799374        0.19601726       -0.02958876        1.10000000        1.06755223
    10.52486339       67.66261372        0.19701656       -0.03026195        1.10000000        1.06721525
    10.55303772       67.68723369        0.19801031       -0.03093209        1.10000000        1.06687863
    10.58095648       67.71185367        0.19899858       -0.03159923        1.10000000        1.06654237
    10.60862383       67.73647365        0.19998145       -0.03226340        1.10000000        1.06620647
    10.63604381       67.76109363        0.20095902       -0.03292466        1.10000000        1.06587093
    10.66322038       67.78571360        0.20193135       -0.03358305        1.10000000        1.06553575
    10.69015735       67.81033358        0.20289852       -0.03423861        1.10000000        1.06520093
    10.71685844       67.83495356        0.20386061       -0.03489138        1.10000000        1.06486647
    10.74332728       67.85957354        0.20481768       -0.03554141        1.10000000        1.06453237
    10.76956739       67.88419351        0.20576982       -0.03618872        1.10000000        1.06419863
    10.79558219       67.90881349        0.20671708       -0.03683336        1.10000000        1.06386525
    10.82137501       67.93343347        0.20765953       -0.03747537        1.10000000        1.06353224
    10.84694912       67.95805345        0.20859724       -0.03811479        1.10000000        1.06319958
    10.87230767       67.98267342        0.20953028       -0.03875164        1.10000000        1.06286728
    10.89745374       68.00729340        0.21045870       -0.03938596        1.10000000        1.06253534
    10.92239034       68.03191338        0.21138256       -0.04001779        1.10000000        1.06220376
    10.94712039       68.05653335        0.21230192       -0.04064716        1.10000000        1.06187253
    10.97164674       68.08115333        0.21321684       -0.04127410        1.10000000        1.06154167
    10.99597218       68.10577331        0.21412738       -0.04189864        1.10000000        1.06121117
    11.02009943       68.13039329        0.21503359       -0.04252081        1.10000000        1.06088103
    11.04403112       68.15501326        0.21593553       -0.04314064        1.10000000        1.06055125
    11.06776985       68.17963324        0.21683324       -0.04375816        1.10000000        1.06022182
    11.09131813       68.20425322        0.21772678       -0.04437340        1.10000000        1.05989276
    11.11467844       68.22887320        0.21861619       -0.04498638        1.10000000        1.05956406
    11.13785315       68.25349317        0.21950153       -0.04559714        1.10000000        1.05923571
    11.16084463       68.27811315        0.22038285       -0.04620570        1.10000000        1.05890773
    11.18365516       68.30273313        0.22126018       -0.04681208        1.10000000        1.05858010
    11.20628699       68.32735311        0.22213358       -0.04741631        1.10000000        1.05825283
    11.22874231       68.35197308        0.22300309       -0.04801841        1.10000000        1.05792592
    11.25102324       68.37659306        0.22386876       -0.04861841        1.10000000        1.05759937
    11.27313188       68.40121304        0.22473062       -0.04921634        1.10000000        1.05727318
    11.29507028       68.42583301        0.22558872       -0.04981220        1.10000000        1.05694735
    11.31684043       68.45045299        0.22644309       -0.05040604        1.10000000        1.05662188
    11.33844429       68.47507297        0.22729379       -0.05099786        1.10000000        1.05629676
    11.35988376       68.49969295        0.22814084       -0.05158769        1.10000000        1.05597201
    11.38116073       68.52431292        0.22898429       -0.05217555        1.10000000        1.05564761
    11.40227702       68.54893290        0.22982418       -0.05276146        1.10000000        1.05532357
    11.42323441       68.57355288        0.23066053       -0.05334544        1.10000000        1.05499990
    11.44403467       68.59817286        0.23149339       -0.05392751        1.10000000        1.05467658
    11.46467950       68.62279283        0.23232279       -0.05450769        1.10000000        1.05435361
    11.48517061       68.64741281        0.23314877       -0.05508600        1.10000000        1.05403101
    11.50550962       68.67203279        0.23397135       -0.05566246        1.10000000        1.05370877
    11.52569813       68.69665277        0.23479058       -0.05623708        1.10000000        1.05338688
    11.54573777       68.72127274        0.23560649       -0.05680988        1.10000000        1.05306535
    11.56563003       68.74589272        0.23641910       -0.05738089        1.10000000        1.05274418
    11.58537646       68.77051270        0.23722845       -0.05795011        1.10000000        1.05242337
    11.60497854       68.79513267        0.23803457       -0.05851756        1.10000000        1.05210292
    11.62443773       68.81975265        0.23883748       -0.05908326        1.10000000        1.05178283
    11.64375544       68.84437263        0.23963723       -0.05964723        1.10000000        1.05146309
    11.66293308       68.86899261        0.24043383       -0.06020947        1.10000000        1.05114371
    11.68197204       68.89361258        0.24122732       -0.06077001        1.10000000        1.05082469
    11.70087364       68.91823256        0.24201773       -0.06132887        1.10000000        1.05050603
    11.71963921       68.94285254        0.24280507       -0.06188604        1.10000000        1.05018773
    11.73827005       68.96747252        0.24358939       -0.06244156        1.10000000        1.04986979
    11.75676743       68.99209249        0.24437069       -0.06299543        1.10000000        1.04955220
    11.77513259       69.01671247        0.24514902       -0.06354767        1.10000000        1.04923497
    11.79336675       69.04133245        0.24592439       -0.06409829        1.10000000        1.04891810
    11.81147114       69.06595243        0.24669684       -0.06464731        1.10000000        1.04860159
    11.82944690       69.09057240        0.24746637       -0.06519473        1.10000000        1.04828543
    11.84729521       69.11519238        0.24823303       -0.06574057        1.10000000        1.04796963
    11.86501720       69.13981236        0.24899683       -0.06628485        1.10000000        1.04765420
    11.88261399       69.16443233        0.24975779       -0.06682757        1.10000000        1.04733912
    11.90008666       69.18905231        0.25051595       -0.06736874        1.10000000        1.04702439
    11.91743631       69.21367229        0.25127131       -0.06790839        1.10000000        1.04671003
    11.93466398       69.23829227        0.25202391       -0.06844651        1.10000000        1.04639602
    11.95177071       69.26291224        0.25277376       -0.06898313        1.10000000        1.04608237
    11.96875753       69.28753222        0.25352089       -0.06951825        1.10000000        1.04576908
    11.98562544       69.31215220        0.25426531       -0.07005188        1.10000000        1.04545614
    12.00237541       69.33677218        0.25500705       -0.07058404        1.10000000        1.04514357
    12.01900842       69.36139215        0.25574613       -0.07111474        1.10000000        1.04483135
    12.03552542       69.38601213        0.25648256       -0.07164398        1.10000000        1.04451949
    12.05192734       69.41063211        0.25721637       -0.07217177        1.10000000        1.04420798
    12.06821510       69.43525209        0.25794758       -0.07269813        1.10000000        1.04389684
    12.08438962       69.45987206        0.25867620       -0.07322307        1.10000000        1.04358605
    12.10045176       69.48449204        0.25940226       -0.07374659        1.10000000        1.04327562
    12.11640243       69.50911202        0.26012577       -0.07426870        1.10000000        1.04296554
    12.13224246       69.53373199        0.26084674       -0.07478942        1.10000000        1.04265583
    12.14797270       69.55835197        0.26156521       -0.07530876        1.10000000        1.04234647
    12.16359399       69.58297195        0.26228118       -0.07582671        1.10000000        1.04203747
    12.17910714       69.60759193        0.26299467       -0.07634330        1.10000000        1.04172883
    12.19451296       69.63221190        0.26370569       -0.07685852        1.10000000        1.04142054
    12.20981223       69.65683188        0.26441428       -0.07737239        1.10000000        1.04111261
    12.22500576       69.68145186        0.26512043       -0.07788492        1.10000000        1.04080504
    12.24009427       69.70607184        0.26582418       -0.07839611        1.10000000        1.04049783
    12.25507856       69.73069181        0.26652552       -0.07890598        1.10000000        1.04019097
    12.26995934       69.75531179        0.26722449       -0.07941452        1.10000000        1.03988447
    12.28473736       69.77993177        0.26792108       -0.07992176        1.10000000        1.03957833
    12.29941332       69.80455175        0.26861533       -0.08042768        1.10000000        1.03927254
