#  Theta paroi en deg Angle Choc en deg       Kp           Inverse Mach       Mach amont       Mach aval
     0.00000000       78.63512303        0.00000000        0.01960784        1.02000000
     1.66705194       78.63546398        0.00897842        0.01426982        1.02000000        1.01999764
     1.67915488       78.63594102        0.00909875        0.01419798        1.02000000        1.01999434
     1.70426823       78.63682636        0.00935071        0.01404756        1.02000000        1.01998821
     1.74939251       78.63839219        0.00981109        0.01377261        1.02000000        1.01997736
     1.81852401       78.64091070        0.01053540        0.01333982        1.02000000        1.01995993
     1.91148107       78.64465410        0.01154537        0.01273586        1.02000000        1.01993403
     2.02467892       78.64989457        0.01283066        0.01196648        1.02000000        1.01989777
     2.15321207       78.65690431        0.01436330        0.01104788        1.02000000        1.01984931
     2.29247782       78.66595552        0.01611123        0.00999871        1.02000000        1.01978678
     2.43881873       78.67732040        0.01804528        0.00883592        1.02000000        1.01970833
     2.56350175       78.68868528        0.01977151        0.00779636        1.02000000        1.01962995
     2.67275476       78.70005015        0.02134336        0.00684838        1.02000000        1.01955166
     2.77038770       78.71141503        0.02279486        0.00597177        1.02000000        1.01947344
     2.85891219       78.72277991        0.02414923        0.00515280        1.02000000        1.01939530
     2.94007770       78.73414479        0.02542307        0.00438160        1.02000000        1.01931724
     3.01515581       78.74550966        0.02662878        0.00365083        1.02000000        1.01923926
     3.08510205       78.75687454        0.02777586        0.00295485        1.02000000        1.01916135
     3.15065438       78.76823942        0.02887179        0.00228923        1.02000000        1.01908353
     3.21239556       78.77960429        0.02992259        0.00165040        1.02000000        1.01900578
     3.27079462       78.79096917        0.03093319        0.00103543        1.02000000        1.01892811
     3.32623512       78.80233405        0.03190766        0.00044190        1.02000000        1.01885051
     3.37903515       78.81369892        0.03284945       -0.00013222        1.02000000        1.01877300
     3.42946166       78.82506380        0.03376147       -0.00068867        1.02000000        1.01869556
     3.47774109       78.83642868        0.03464624       -0.00122893        1.02000000        1.01861820
     3.52406737       78.84779355        0.03550592       -0.00175429        1.02000000        1.01854092
     3.56860797       78.85915843        0.03634241       -0.00226588        1.02000000        1.01846371
     3.61150850       78.87052331        0.03715738       -0.00276469        1.02000000        1.01838659
     3.65289666       78.88188819        0.03795230       -0.00325159        1.02000000        1.01830954
     3.69288491       78.89325306        0.03872849       -0.00372736        1.02000000        1.01823257
     3.73157288       78.90461794        0.03948712       -0.00419269        1.02000000        1.01815568
     3.76904945       78.91598282        0.04022924       -0.00464822        1.02000000        1.01807886
     3.80539409       78.92734769        0.04095581       -0.00509449        1.02000000        1.01800212
     3.84067830       78.93871257        0.04166768       -0.00553204        1.02000000        1.01792547
     3.87496659       78.95007745        0.04236565       -0.00596131        1.02000000        1.01784888
     3.90831741       78.96144232        0.04305042       -0.00638274        1.02000000        1.01777238
     3.94078389       78.97280720        0.04372265       -0.00679671        1.02000000        1.01769596
     3.97241457       78.98417208        0.04438294       -0.00720359        1.02000000        1.01761961
     4.00325374       78.99553696        0.04503186       -0.00760369        1.02000000        1.01754334
     4.03334212       79.00690183        0.04566990       -0.00799732        1.02000000        1.01746715
     4.06271714       79.01826671        0.04629754       -0.00838477        1.02000000        1.01739104
     4.09141330       79.02963159        0.04691523       -0.00876630        1.02000000        1.01731500
     4.11946256       79.04099646        0.04752336       -0.00914214        1.02000000        1.01723904
     4.14689445       79.05236134        0.04812233       -0.00951252        1.02000000        1.01716316
     4.17373640       79.06372622        0.04871249       -0.00987765        1.02000000        1.01708736
     4.20001402       79.07509109        0.04929416       -0.01023774        1.02000000        1.01701164
     4.22575106       79.08645597        0.04986767       -0.01059296        1.02000000        1.01693599
     4.25096973       79.09782085        0.05043329       -0.01094349        1.02000000        1.01686042
     4.27569085       79.10918572        0.05099132       -0.01128948        1.02000000        1.01678493
     4.29993385       79.12055060        0.05154200       -0.01163110        1.02000000        1.01670952
     4.32371701       79.13191548        0.05208558       -0.01196849        1.02000000        1.01663419
     4.34705750       79.14328036        0.05262229       -0.01230179        1.02000000        1.01655893
     4.36997147       79.15464523        0.05315235       -0.01263112        1.02000000        1.01648375
     4.39247413       79.16601011        0.05367596       -0.01295660        1.02000000        1.01640865
     4.41457982       79.17737499        0.05419332       -0.01327836        1.02000000        1.01633363
     4.43630214       79.18873986        0.05470462       -0.01359649        1.02000000        1.01625868
     4.45765387       79.20010474        0.05521002       -0.01391111        1.02000000        1.01618382
     4.47864716       79.21146962        0.05570970       -0.01422232        1.02000000        1.01610903
     4.49929354       79.22283449        0.05620381       -0.01453020        1.02000000        1.01603432
     4.51960390       79.23419937        0.05669251       -0.01483485        1.02000000        1.01595968
     4.53958860       79.24556425        0.05717594       -0.01513636        1.02000000        1.01588513
     4.55925756       79.25692913        0.05765423       -0.01543480        1.02000000        1.01581065
     4.57862009       79.26829400        0.05812753       -0.01573025        1.02000000        1.01573625
     4.59768513       79.27965888        0.05859595       -0.01602279        1.02000000        1.01566193
     4.61646125       79.29102376        0.05905962       -0.01631248        1.02000000        1.01558769
     4.63495652       79.30238863        0.05951864       -0.01659941        1.02000000        1.01551352
     4.65317872       79.31375351        0.05997314       -0.01688363        1.02000000        1.01543944
     4.67113522       79.32511839        0.06042322       -0.01716520        1.02000000        1.01536543
     4.68883320       79.33648326        0.06086897       -0.01744418        1.02000000        1.01529150
     4.70627935       79.34784814        0.06131050       -0.01772064        1.02000000        1.01521764
     4.72348021       79.35921302        0.06174790       -0.01799463        1.02000000        1.01514387
     4.74044198       79.37057790        0.06218126       -0.01826619        1.02000000        1.01507017
     4.75717067       79.38194277        0.06261066       -0.01853539        1.02000000        1.01499655
     4.77367197       79.39330765        0.06303619       -0.01880228        1.02000000        1.01492301
     4.78995139       79.40467253        0.06345793       -0.01906689        1.02000000        1.01484955
     4.80601420       79.41603740        0.06387596       -0.01932927        1.02000000        1.01477616
     4.82186553       79.42740228        0.06429035       -0.01958948        1.02000000        1.01470285
     4.83751021       79.43876716        0.06470117       -0.01984754        1.02000000        1.01462962
     4.85295295       79.45013203        0.06510850       -0.02010351        1.02000000        1.01455647
     4.86819831       79.46149691        0.06551239       -0.02035742        1.02000000        1.01448340
     4.88325062       79.47286179        0.06591292       -0.02060932        1.02000000        1.01441040
     4.89811408       79.48422666        0.06631014       -0.02085923        1.02000000        1.01433748
     4.91279278       79.49559154        0.06670412       -0.02110719        1.02000000        1.01426464
     4.92729061       79.50695642        0.06709492       -0.02135325        1.02000000        1.01419188
     4.94161134       79.51832130        0.06748259       -0.02159742        1.02000000        1.01411920
     4.95575861       79.52968617        0.06786719       -0.02183975        1.02000000        1.01404659
     4.96973598       79.54105105        0.06824877       -0.02208026        1.02000000        1.01397406
     4.98354681       79.55241593        0.06862738       -0.02231899        1.02000000        1.01390161
     4.99719444       79.56378080        0.06900307       -0.02255597        1.02000000        1.01382924
     5.01068202       79.57514568        0.06937589       -0.02279122        1.02000000        1.01375695
     5.02401264       79.58651056        0.06974589       -0.02302477        1.02000000        1.01368473
     5.03718929       79.59787543        0.07011311       -0.02325665        1.02000000        1.01361259
     5.05021485       79.60924031        0.07047760       -0.02348689        1.02000000        1.01354053
     5.06309217       79.62060519        0.07083940       -0.02371551        1.02000000        1.01346855
     5.07582389       79.63197007        0.07119855       -0.02394253        1.02000000        1.01339665
     5.08841269       79.64333494        0.07155509       -0.02416798        1.02000000        1.01332482
     5.10086113       79.65469982        0.07190906       -0.02439188        1.02000000        1.01325307
     5.11317166       79.66606470        0.07226051       -0.02461426        1.02000000        1.01318140
     5.12534671       79.67742957        0.07260946       -0.02483514        1.02000000        1.01310981
     5.13738861       79.68879445        0.07295595       -0.02505454        1.02000000        1.01303830
     5.14929960       79.70015933        0.07330003       -0.02527247        1.02000000        1.01296686
     5.16108192       79.71152420        0.07364171       -0.02548897        1.02000000        1.01289550
     5.17273768       79.72288908        0.07398105       -0.02570404        1.02000000        1.01282422
     5.18426898       79.73425396        0.07431806       -0.02591771        1.02000000        1.01275302
     5.19567785       79.74561884        0.07465279       -0.02613001        1.02000000        1.01268190
     5.20696625       79.75698371        0.07498525       -0.02634093        1.02000000        1.01261085
     5.21813612       79.76834859        0.07531549       -0.02655052        1.02000000        1.01253988
     5.22918929       79.77971347        0.07564354       -0.02675877        1.02000000        1.01246899
     5.24012756       79.79107834        0.07596941       -0.02696571        1.02000000        1.01239818
     5.25095276       79.80244322        0.07629314       -0.02717136        1.02000000        1.01232745
     5.26166656       79.81380810        0.07661476       -0.02737573        1.02000000        1.01225679
     5.27227065       79.82517297        0.07693429       -0.02757883        1.02000000        1.01218621
     5.28276669       79.83653785        0.07725176       -0.02778069        1.02000000        1.01211571
     5.29315624       79.84790273        0.07756719       -0.02798131        1.02000000        1.01204529
     5.30344086       79.85926760        0.07788061       -0.02818072        1.02000000        1.01197495
     5.31362207       79.87063248        0.07819205       -0.02837892        1.02000000        1.01190468
     5.32370137       79.88199736        0.07850153       -0.02857593        1.02000000        1.01183450
     5.33368017       79.89336224        0.07880906       -0.02877177        1.02000000        1.01176439
     5.34355988       79.90472711        0.07911468       -0.02896645        1.02000000        1.01169435
     5.35334190       79.91609199        0.07941840       -0.02915997        1.02000000        1.01162440
     5.36302754       79.92745687        0.07972025       -0.02935236        1.02000000        1.01155452
     5.37261812       79.93882174        0.08002025       -0.02954363        1.02000000        1.01148473
     5.38211492       79.95018662        0.08031842       -0.02973378        1.02000000        1.01141501
     5.39151919       79.96155150        0.08061478       -0.02992283        1.02000000        1.01134537
     5.40083216       79.97291637        0.08090935       -0.03011080        1.02000000        1.01127580
     5.41005503       79.98428125        0.08120215       -0.03029769        1.02000000        1.01120632
     5.41918894       79.99564613        0.08149319       -0.03048351        1.02000000        1.01113691
     5.42823503       80.00701101        0.08178250       -0.03066828        1.02000000        1.01106758
     5.43719443       80.01837588        0.08207010       -0.03085200        1.02000000        1.01099833
     5.44606824       80.02974076        0.08235600       -0.03103470        1.02000000        1.01092916
     5.45485750       80.04110564        0.08264022       -0.03121637        1.02000000        1.01086006
     5.46356326       80.05247051        0.08292278       -0.03139702        1.02000000        1.01079104
     5.47218657       80.06383539        0.08320369       -0.03157668        1.02000000        1.01072210
     5.48072841       80.07520027        0.08348297       -0.03175534        1.02000000        1.01065324
     5.48918974       80.08656514        0.08376065       -0.03193302        1.02000000        1.01058446
     5.49757155       80.09793002        0.08403672       -0.03210972        1.02000000        1.01051576
     5.50587476       80.10929490        0.08431121       -0.03228546        1.02000000        1.01044713
     5.51410029       80.12065978        0.08458414       -0.03246025        1.02000000        1.01037858
     5.52224903       80.13202465        0.08485552       -0.03263409        1.02000000        1.01031011
     5.53032188       80.14338953        0.08512536       -0.03280699        1.02000000        1.01024172
     5.53831972       80.15475441        0.08539368       -0.03297896        1.02000000        1.01017340
     5.54624335       80.16611928        0.08566049       -0.03315001        1.02000000        1.01010517
     5.55409365       80.17748416        0.08592581       -0.03332014        1.02000000        1.01003701
     5.56187138       80.18884904        0.08618964       -0.03348937        1.02000000        1.00996893
     5.56957740       80.20021391        0.08645201       -0.03365771        1.02000000        1.00990093
     5.57721244       80.21157879        0.08671293       -0.03382515        1.02000000        1.00983300
     5.58477728       80.22294367        0.08697241       -0.03399171        1.02000000        1.00976515
     5.59227268       80.23430854        0.08723046       -0.03415740        1.02000000        1.00969739
     5.59969938       80.24567342        0.08748709       -0.03432222        1.02000000        1.00962970
     5.60705810       80.25703830        0.08774232       -0.03448618        1.02000000        1.00956209
     5.61434955       80.26840318        0.08799616       -0.03464929        1.02000000        1.00949455
     5.62157444       80.27976805        0.08824863       -0.03481156        1.02000000        1.00942710
     5.62873344       80.29113293        0.08849972       -0.03497298        1.02000000        1.00935972
     5.63582722       80.30249781        0.08874946       -0.03513357        1.02000000        1.00929242
     5.64285642       80.31386268        0.08899785       -0.03529334        1.02000000        1.00922520
     5.64982175       80.32522756        0.08924491       -0.03545228        1.02000000        1.00915805
     5.65672378       80.33659244        0.08949064       -0.03561042        1.02000000        1.00909099
     5.66356318       80.34795731        0.08973507       -0.03576775        1.02000000        1.00902400
     5.67034052       80.35932219        0.08997819       -0.03592427        1.02000000        1.00895709
     5.67705646       80.37068707        0.09022002       -0.03608001        1.02000000        1.00889026
     5.68371154       80.38205195        0.09046057       -0.03623495        1.02000000        1.00882351
     5.69030636       80.39341682        0.09069985       -0.03638912        1.02000000        1.00875683
     5.69684149       80.40478170        0.09093786       -0.03654250        1.02000000        1.00869024
     5.70331751       80.41614658        0.09117463       -0.03669512        1.02000000        1.00862372
     5.70973495       80.42751145        0.09141015       -0.03684697        1.02000000        1.00855728
     5.71609436       80.43887633        0.09164444       -0.03699806        1.02000000        1.00849092
     5.72239627       80.45024121        0.09187751       -0.03714840        1.02000000        1.00842463
     5.72864120       80.46160608        0.09210936       -0.03729798        1.02000000        1.00835843
     5.73482969       80.47297096        0.09234000       -0.03744683        1.02000000        1.00829230
     5.74096223       80.48433584        0.09256945       -0.03759493        1.02000000        1.00822625
     5.74703931       80.49570071        0.09279771       -0.03774230        1.02000000        1.00816028
     5.75306142       80.50706559        0.09302479       -0.03788895        1.02000000        1.00809438
     5.75902908       80.51843047        0.09325070       -0.03803486        1.02000000        1.00802857
     5.76494272       80.52979535        0.09347545       -0.03818007        1.02000000        1.00796283
     5.77080283       80.54116022        0.09369904       -0.03832455        1.02000000        1.00789717
     5.77660985       80.55252510        0.09392149       -0.03846833        1.02000000        1.00783159
     5.78236428       80.56388998        0.09414279       -0.03861140        1.02000000        1.00776609
     5.78806651       80.57525485        0.09436297       -0.03875378        1.02000000        1.00770066
     5.79371699       80.58661973        0.09458202       -0.03889545        1.02000000        1.00763532
     5.79931619       80.59798461        0.09479996       -0.03903644        1.02000000        1.00757005
     5.80486450       80.60934948        0.09501679       -0.03917674        1.02000000        1.00750486
     5.81036233       80.62071436        0.09523251       -0.03931636        1.02000000        1.00743975
     5.81581012       80.63207924        0.09544715       -0.03945530        1.02000000        1.00737471
     5.82120825       80.64344412        0.09566070       -0.03959356        1.02000000        1.00730976
     5.82655714       80.65480899        0.09587316       -0.03973116        1.02000000        1.00724488
     5.83185717       80.66617387        0.09608456       -0.03986809        1.02000000        1.00718008
     5.83710874       80.67753875        0.09629489       -0.04000436        1.02000000        1.00711536
