#  Theta paroi en deg Angle Choc en deg       Kp           Inverse Mach       Mach amont       Mach aval
     0.00000000       46.88027517        0.00000000        0.27007299        1.37000000
     2.19051438       46.88156876        0.01033707        0.26487398        1.37000000        1.36996463
     2.54951895       46.88337872        0.01343050        0.26331410        1.37000000        1.36991513
     2.97046361       46.88673780        0.01745322        0.26128277        1.37000000        1.36982329
     3.44419335       46.89267874        0.02245881        0.25875054        1.37000000        1.36966087
     3.94323755       46.90223429        0.02824597        0.25581646        1.37000000        1.36939970
     4.45020063       46.91643718        0.03463366        0.25256966        1.37000000        1.36901165
     4.95672887       46.93632016        0.04150104        0.24906914        1.37000000        1.36846871
     5.45941087       46.96291598        0.04877332        0.24535073        1.37000000        1.36774298
     5.95725045       46.99725738        0.05640578        0.24143509        1.37000000        1.36680679
     6.45039413       47.04037711        0.06437301        0.23733301        1.37000000        1.36563270
     6.85595068       47.08349683        0.07121933        0.23379573        1.37000000        1.36446020
     7.20441996       47.12661656        0.07730882        0.23063967        1.37000000        1.36328926
     7.51234759       47.16973628        0.08284598        0.22776167        1.37000000        1.36211989
     7.78980190       47.21285601        0.08795873        0.22509719        1.37000000        1.36095208
     8.04340469       47.25597573        0.09273313        0.22260280        1.37000000        1.35978583
     8.27776311       47.29909546        0.09723023        0.22024768        1.37000000        1.35862112
     8.49622284       47.34221518        0.10149511        0.21800907        1.37000000        1.35745796
     8.70129659       47.38533491        0.10556212        0.21586963        1.37000000        1.35629634
     8.89492352       47.42845463        0.10945814        0.21381579        1.37000000        1.35513626
     9.07863410       47.47157436        0.11320462        0.21183670        1.37000000        1.35397771
     9.25365929       47.51469408        0.11681902        0.20992354        1.37000000        1.35282068
     9.42100508       47.55781381        0.12031575        0.20806905        1.37000000        1.35166517
     9.58150513       47.60093353        0.12370684        0.20626714        1.37000000        1.35051118
     9.73585862       47.64405326        0.12700248        0.20451265        1.37000000        1.34935870
     9.88465825       47.68717298        0.13021137        0.20280120        1.37000000        1.34820772
    10.02841111       47.73029271        0.13334103        0.20112898        1.37000000        1.34705825
    10.16755478       47.77341243        0.13639796        0.19949270        1.37000000        1.34591028
    10.30246966       47.81653216        0.13938788        0.19788947        1.37000000        1.34476379
    10.43348870       47.85965188        0.14231579        0.19631677        1.37000000        1.34361880
    10.56090513       47.90277161        0.14518616        0.19477233        1.37000000        1.34247529
    10.68497864       47.94589133        0.14800293        0.19325416        1.37000000        1.34133325
    10.80594041       47.98901106        0.15076966        0.19176046        1.37000000        1.34019270
    10.92399721       48.03213078        0.15348952        0.19028963        1.37000000        1.33905361
    11.03933479       48.07525051        0.15616541        0.18884019        1.37000000        1.33791598
    11.15212067       48.11837023        0.15879990        0.18741085        1.37000000        1.33677982
    11.26250652       48.16148995        0.16139539        0.18600039        1.37000000        1.33564511
    11.37063012       48.20460968        0.16395402        0.18460773        1.37000000        1.33451186
    11.47661705       48.24772940        0.16647776        0.18323186        1.37000000        1.33338005
    11.58058209       48.29084913        0.16896844        0.18187187        1.37000000        1.33224969
    11.68263048       48.33396885        0.17142772        0.18052691        1.37000000        1.33112077
    11.78285894       48.37708858        0.17385714        0.17919620        1.37000000        1.32999328
    11.88135661       48.42020830        0.17625812        0.17787902        1.37000000        1.32886722
    11.97820583       48.46332803        0.17863197        0.17657470        1.37000000        1.32774259
    12.07348281       48.50644775        0.18097991        0.17528263        1.37000000        1.32661938
    12.16725827       48.54956748        0.18330310        0.17400222        1.37000000        1.32549759
    12.25959788       48.59268720        0.18560258        0.17273294        1.37000000        1.32437721
    12.35056289       48.63580693        0.18787935        0.17147428        1.37000000        1.32325825
    12.44021037       48.67892665        0.19013433        0.17022578        1.37000000        1.32214068
    12.52859368       48.72204638        0.19236838        0.16898699        1.37000000        1.32102453
    12.61576276       48.76516610        0.19458233        0.16775750        1.37000000        1.31990976
    12.70176444       48.80828583        0.19677694        0.16653692        1.37000000        1.31879640
    12.78664266       48.85140555        0.19895293        0.16532488        1.37000000        1.31768442
    12.87043877       48.89452528        0.20111096        0.16412105        1.37000000        1.31657383
    12.95319167       48.93764500        0.20325170        0.16292508        1.37000000        1.31546462
    13.03493803       48.98076473        0.20537573        0.16173669        1.37000000        1.31435678
    13.11571248       49.02388445        0.20748362        0.16055556        1.37000000        1.31325033
    13.19554772       49.06700418        0.20957593        0.15938144        1.37000000        1.31214524
    13.27447468       49.11012390        0.21165316        0.15821405        1.37000000        1.31104152
    13.35252269       49.15324363        0.21371579        0.15705316        1.37000000        1.30993916
    13.42971952       49.19636335        0.21576429        0.15589852        1.37000000        1.30883816
    13.50609153       49.23948308        0.21779910        0.15474991        1.37000000        1.30773852
    13.58166375       49.28260280        0.21982063        0.15360711        1.37000000        1.30664022
    13.65646002       49.32572253        0.22182928        0.15246993        1.37000000        1.30554328
    13.73050298       49.36884225        0.22382542        0.15133816        1.37000000        1.30444768
    13.80381420       49.41196198        0.22580943        0.15021164        1.37000000        1.30335342
    13.87641428       49.45508170        0.22778164        0.14909017        1.37000000        1.30226050
    13.94832281       49.49820142        0.22974239        0.14797358        1.37000000        1.30116891
    14.01955855       49.54132115        0.23169198        0.14686173        1.37000000        1.30007865
    14.09013940       49.58444087        0.23363071        0.14575445        1.37000000        1.29898972
    14.16008248       49.62756060        0.23555889        0.14465159        1.37000000        1.29790211
    14.22940416       49.67068032        0.23747677        0.14355302        1.37000000        1.29681582
    14.29812014       49.71380005        0.23938463        0.14245859        1.37000000        1.29573084
    14.36624543       49.75691977        0.24128272        0.14136818        1.37000000        1.29464718
    14.43379444       49.80003950        0.24317128        0.14028166        1.37000000        1.29356482
    14.50078100       49.84315922        0.24505055        0.13919891        1.37000000        1.29248377
    14.56721837       49.88627895        0.24692074        0.13811981        1.37000000        1.29140403
    14.63311930       49.92939867        0.24878208        0.13704425        1.37000000        1.29032558
    14.69849602       49.97251840        0.25063478        0.13597213        1.37000000        1.28924843
    14.76336033       50.01563812        0.25247903        0.13490334        1.37000000        1.28817256
    14.82772353       50.05875785        0.25431502        0.13383778        1.37000000        1.28709799
    14.89159655       50.10187757        0.25614294        0.13277536        1.37000000        1.28602471
    14.95498988       50.14499730        0.25796297        0.13171597        1.37000000        1.28495270
    15.01791364       50.18811702        0.25977528        0.13065954        1.37000000        1.28388198
    15.08037758       50.23123675        0.26158003        0.12960598        1.37000000        1.28281253
    15.14239111       50.27435647        0.26337739        0.12855520        1.37000000        1.28174435
    15.20396331       50.31747620        0.26516751        0.12750712        1.37000000        1.28067744
    15.26510294       50.36059592        0.26695054        0.12646167        1.37000000        1.27961180
    15.32581845       50.40371565        0.26872662        0.12541876        1.37000000        1.27854742
    15.38611803       50.44683537        0.27049589        0.12437833        1.37000000        1.27748430
    15.44600957       50.48995510        0.27225849        0.12334031        1.37000000        1.27642244
    15.50550072       50.53307482        0.27401455        0.12230462        1.37000000        1.27536183
    15.56459885       50.57619455        0.27576419        0.12127120        1.37000000        1.27430248
    15.62331113       50.61931427        0.27750754        0.12023999        1.37000000        1.27324437
    15.68164447       50.66243400        0.27924470        0.11921092        1.37000000        1.27218750
    15.73960557       50.70555372        0.28097581        0.11818394        1.37000000        1.27113188
    15.79720094       50.74867344        0.28270096        0.11715898        1.37000000        1.27007750
    15.85443684       50.79179317        0.28442027        0.11613599        1.37000000        1.26902435
    15.91131939       50.83491289        0.28613384        0.11511491        1.37000000        1.26797244
    15.96785449       50.87803262        0.28784176        0.11409568        1.37000000        1.26692175
    16.02404788       50.92115234        0.28954415        0.11307827        1.37000000        1.26587229
    16.07990513       50.96427207        0.29124109        0.11206261        1.37000000        1.26482406
    16.13543163       51.00739179        0.29293267        0.11104866        1.37000000        1.26377705
    16.19063263       51.05051152        0.29461899        0.11003637        1.37000000        1.26273126
    16.24551322       51.09363124        0.29630013        0.10902569        1.37000000        1.26168668
    16.30007834       51.13675097        0.29797617        0.10801657        1.37000000        1.26064331
    16.35433281       51.17987069        0.29964720        0.10700898        1.37000000        1.25960116
    16.40828128       51.22299042        0.30131330        0.10600287        1.37000000        1.25856021
    16.46192830       51.26611014        0.30297455        0.10499820        1.37000000        1.25752047
    16.51527829       51.30922987        0.30463102        0.10399493        1.37000000        1.25648193
    16.56833555       51.35234959        0.30628278        0.10299301        1.37000000        1.25544459
    16.62110425       51.39546932        0.30792990        0.10199242        1.37000000        1.25440845
    16.67358845       51.43858904        0.30957246        0.10099310        1.37000000        1.25337350
    16.72579213       51.48170877        0.31121052        0.09999503        1.37000000        1.25233975
    16.77771913       51.52482849        0.31284415        0.09899817        1.37000000        1.25130718
    16.82937321       51.56794822        0.31447340        0.09800249        1.37000000        1.25027580
    16.88075802       51.61106794        0.31609836        0.09700794        1.37000000        1.24924560
    16.93187713       51.65418767        0.31771906        0.09601450        1.37000000        1.24821658
    16.98273400       51.69730739        0.31933558        0.09502214        1.37000000        1.24718874
    17.03333202       51.74042712        0.32094797        0.09403082        1.37000000        1.24616208
    17.08367450       51.78354684        0.32255629        0.09304051        1.37000000        1.24513659
    17.13376464       51.82666657        0.32416059        0.09205118        1.37000000        1.24411227
    17.18360559       51.86978629        0.32576092        0.09106281        1.37000000        1.24308912
    17.23320041       51.91290602        0.32735734        0.09007536        1.37000000        1.24206714
    17.28255207       51.95602574        0.32894990        0.08908880        1.37000000        1.24104632
    17.33166350       51.99914547        0.33053864        0.08810311        1.37000000        1.24002666
    17.38053755       52.04226519        0.33212362        0.08711827        1.37000000        1.23900816
    17.42917698       52.08538491        0.33370488        0.08613423        1.37000000        1.23799082
    17.47758450       52.12850464        0.33528247        0.08515099        1.37000000        1.23697463
    17.52576278       52.17162436        0.33685643        0.08416851        1.37000000        1.23595959
    17.57371439       52.21474409        0.33842681        0.08318677        1.37000000        1.23494570
    17.62144186       52.25786381        0.33999364        0.08220574        1.37000000        1.23393296
    17.66894765       52.30098354        0.34155698        0.08122540        1.37000000        1.23292137
    17.71623419       52.34410326        0.34311686        0.08024574        1.37000000        1.23191091
    17.76330382       52.38722299        0.34467332        0.07926671        1.37000000        1.23090160
    17.81015885       52.43034271        0.34622640        0.07828832        1.37000000        1.22989343
    17.85680154       52.47346244        0.34777614        0.07731052        1.37000000        1.22888639
    17.90323409       52.51658216        0.34932257        0.07633330        1.37000000        1.22788048
    17.94945865       52.55970189        0.35086574        0.07535665        1.37000000        1.22687571
    17.99547733       52.60282161        0.35240567        0.07438053        1.37000000        1.22587206
    18.04129219       52.64594134        0.35394240        0.07340493        1.37000000        1.22486954
    18.08690524       52.68906106        0.35547597        0.07242983        1.37000000        1.22386815
    18.13231847       52.73218079        0.35700641        0.07145521        1.37000000        1.22286788
    18.17753380       52.77530051        0.35853374        0.07048106        1.37000000        1.22186873
    18.22255313       52.81842024        0.36005801        0.06950734        1.37000000        1.22087070
    18.26737829       52.86153996        0.36157925        0.06853405        1.37000000        1.21987378
    18.31201112       52.90465969        0.36309747        0.06756117        1.37000000        1.21887798
    18.35645337       52.94777941        0.36461272        0.06658868        1.37000000        1.21788329
    18.40070678       52.99089914        0.36612502        0.06561656        1.37000000        1.21688971
    18.44477306       53.03401886        0.36763440        0.06464480        1.37000000        1.21589724
    18.48865388       53.07713859        0.36914089        0.06367338        1.37000000        1.21490588
    18.53235085       53.12025831        0.37064451        0.06270228        1.37000000        1.21391561
    18.57586560       53.16337804        0.37214530        0.06173149        1.37000000        1.21292646
    18.61919966       53.20649776        0.37364327        0.06076099        1.37000000        1.21193840
    18.66235460       53.24961749        0.37513846        0.05979077        1.37000000        1.21095144
    18.70533190       53.29273721        0.37663088        0.05882081        1.37000000        1.20996557
    18.74813304       53.33585693        0.37812056        0.05785110        1.37000000        1.20898081
    18.79075947       53.37897666        0.37960754        0.05688162        1.37000000        1.20799713
    18.83321261       53.42209638        0.38109182        0.05591236        1.37000000        1.20701454
    18.87549384       53.46521611        0.38257343        0.05494331        1.37000000        1.20603304
    18.91760453       53.50833583        0.38405240        0.05397444        1.37000000        1.20505263
    18.95954600       53.55145556        0.38552874        0.05300576        1.37000000        1.20407331
    19.00131958       53.59457528        0.38700248        0.05203723        1.37000000        1.20309506
    19.04292654       53.63769501        0.38847364        0.05106886        1.37000000        1.20211790
    19.08436814       53.68081473        0.38994225        0.05010063        1.37000000        1.20114182
    19.12564562       53.72393446        0.39140831        0.04913253        1.37000000        1.20016682
    19.16676020       53.76705418        0.39287185        0.04816454        1.37000000        1.19919289
    19.20771305       53.81017391        0.39433289        0.04719665        1.37000000        1.19822003
    19.24850535       53.85329363        0.39579144        0.04622885        1.37000000        1.19724825
    19.28913825       53.89641336        0.39724754        0.04526113        1.37000000        1.19627754
    19.32961286       53.93953308        0.39870119        0.04429347        1.37000000        1.19530790
    19.36993029       53.98265281        0.40015241        0.04332587        1.37000000        1.19433932
    19.41009162       54.02577253        0.40160122        0.04235832        1.37000000        1.19337181
    19.45009791       54.06889226        0.40304764        0.04139080        1.37000000        1.19240537
    19.48995020       54.11201198        0.40449168        0.04042330        1.37000000        1.19143998
    19.52964953       54.15513171        0.40593337        0.03945581        1.37000000        1.19047566
    19.56919689       54.19825143        0.40737271        0.03848833        1.37000000        1.18951239
    19.60859327       54.24137116        0.40880972        0.03752084        1.37000000        1.18855019
    19.64783963       54.28449088        0.41024443        0.03655333        1.37000000        1.18758903
    19.68693694       54.32761061        0.41167683        0.03558579        1.37000000        1.18662894
    19.72588611       54.37073033        0.41310696        0.03461821        1.37000000        1.18566989
    19.76468808       54.41385006        0.41453481        0.03365058        1.37000000        1.18471190
    19.80334374       54.45696978        0.41596042        0.03268290        1.37000000        1.18375495
    19.84185397       54.50008951        0.41738378        0.03171515        1.37000000        1.18279905
    19.88021965       54.54320923        0.41880493        0.03074733        1.37000000        1.18184420
    19.91844162       54.58632895        0.42022386        0.02977942        1.37000000        1.18089040
    19.95652073       54.62944868        0.42164059        0.02881141        1.37000000        1.17993763
