#  Theta paroi en deg Angle Choc en deg       Kp           Inverse Mach       Mach amont       Mach aval
     0.00000000       27.30425829        0.00000000        0.54128440        2.18000000
     1.91947832       27.30613916        0.00667140        0.53831315        2.18000000        2.17990518
     2.30601565       27.30877084        0.00908435        0.53724489        2.18000000        2.17977252
     2.72629045       27.31365491        0.01201467        0.53595202        2.18000000        2.17952638
     3.18170988       27.32229299        0.01552308        0.53441038        2.18000000        2.17909121
     3.65271133       27.33618668        0.01949048        0.53267513        2.18000000        2.17839168
     4.12754881       27.35683757        0.02381745        0.53079212        2.18000000        2.17735290
     4.60145039       27.38574728        0.02844599        0.52878854        2.18000000        2.17590059
     5.07332995       27.42441739        0.03334856        0.52667803        2.18000000        2.17396143
     5.54382718       27.47434952        0.03851731        0.52446553        2.18000000        2.17146336
     6.01434497       27.53704526        0.04395718        0.52215046        2.18000000        2.16833596
     6.40547399       27.59974100        0.04867992        0.52015143        2.18000000        2.16521874
     6.74506893       27.66243674        0.05292513        0.51836284        2.18000000        2.16211157
     7.04817628       27.72513248        0.05682605        0.51672604        2.18000000        2.15901435
     7.32392351       27.78782823        0.06046537        0.51520466        2.18000000        2.15592697
     7.57829874       27.85052397        0.06389831        0.51377442        2.18000000        2.15284931
     7.81545991       27.91321971        0.06716384        0.51241819        2.18000000        2.14978128
     8.03842128       27.97591545        0.07029054        0.51112341        2.18000000        2.14672277
     8.24944334       28.03861119        0.07330012        0.50988054        2.18000000        2.14367368
     8.45026836       28.10130693        0.07620947        0.50868217        2.18000000        2.14063390
     8.64226989       28.16400268        0.07903200        0.50752240        2.18000000        2.13760334
     8.82655141       28.22669842        0.08177860        0.50639644        2.18000000        2.13458188
     9.00401399       28.28939416        0.08445821        0.50530037        2.18000000        2.13156945
     9.17540363       28.35208990        0.08707827        0.50423091        2.18000000        2.12856594
     9.34134554       28.41478564        0.08964506        0.50318530        2.18000000        2.12557125
     9.50236923       28.47748138        0.09216391        0.50216119        2.18000000        2.12258529
     9.65892753       28.54017713        0.09463943        0.50115655        2.18000000        2.11960798
     9.81141083       28.60287287        0.09707559        0.50016963        2.18000000        2.11663922
     9.96015833       28.66556861        0.09947584        0.49919890        2.18000000        2.11367891
    10.10546676       28.72826435        0.10184323        0.49824302        2.18000000        2.11072698
    10.24759727       28.79096009        0.10418045        0.49730080        2.18000000        2.10778333
    10.38678104       28.85365583        0.10648987        0.49637118        2.18000000        2.10484787
    10.52322373       28.91635158        0.10877363        0.49545322        2.18000000        2.10192053
    10.65710923       28.97904732        0.11103363        0.49454607        2.18000000        2.09900122
    10.78860260       29.04174306        0.11327158        0.49364898        2.18000000        2.09608986
    10.91785269       29.10443880        0.11548903        0.49276125        2.18000000        2.09318636
    11.04499415       29.16713454        0.11768738        0.49188225        2.18000000        2.09029064
    11.17014927       29.22983028        0.11986790        0.49101142        2.18000000        2.08740263
    11.29342945       29.29252603        0.12203175        0.49014824        2.18000000        2.08452225
    11.41493650       29.35522177        0.12418001        0.48929222        2.18000000        2.08164942
    11.53476367       29.41791751        0.12631364        0.48844293        2.18000000        2.07878406
    11.65299669       29.48061325        0.12843354        0.48759997        2.18000000        2.07592610
    11.76971450       29.54330899        0.13054054        0.48676295        2.18000000        2.07307547
    11.88498997       29.60600474        0.13263539        0.48593154        2.18000000        2.07023208
    11.99889058       29.66870048        0.13471881        0.48510542        2.18000000        2.06739588
    12.11147885       29.73139622        0.13679145        0.48428428        2.18000000        2.06456678
    12.22281292       29.79409196        0.13885391        0.48346785        2.18000000        2.06174472
    12.33294688       29.85678770        0.14090676        0.48265587        2.18000000        2.05892964
    12.44193118       29.91948344        0.14295054        0.48184809        2.18000000        2.05612145
    12.54981296       29.98217919        0.14498572        0.48104430        2.18000000        2.05332009
    12.65663632       30.04487493        0.14701277        0.48024426        2.18000000        2.05052550
    12.76244259       30.10757067        0.14903212        0.47944779        2.18000000        2.04773761
    12.86727058       30.17026641        0.15104418        0.47865470        2.18000000        2.04495636
    12.97115675       30.23296215        0.15304932        0.47786481        2.18000000        2.04218167
    13.07413540       30.29565789        0.15504790        0.47707795        2.18000000        2.03941350
    13.17623887       30.35835364        0.15704026        0.47629396        2.18000000        2.03665177
    13.27749769       30.42104938        0.15902671        0.47551270        2.18000000        2.03389643
    13.37794066       30.48374512        0.16100754        0.47473401        2.18000000        2.03114741
    13.47759505       30.54644086        0.16298305        0.47395778        2.18000000        2.02840466
    13.57648667       30.60913660        0.16495349        0.47318386        2.18000000        2.02566811
    13.67463997       30.67183234        0.16691912        0.47241214        2.18000000        2.02293770
    13.77207817       30.73452809        0.16888017        0.47164250        2.18000000        2.02021339
    13.86882330       30.79722383        0.17083687        0.47087483        2.18000000        2.01749510
    13.96489629       30.85991957        0.17278944        0.47010903        2.18000000        2.01478280
    14.06031710       30.92261531        0.17473807        0.46934500        2.18000000        2.01207641
    14.15510469       30.98531105        0.17668296        0.46858264        2.18000000        2.00937589
    14.24927714       31.04800679        0.17862429        0.46782186        2.18000000        2.00668118
    14.34285171       31.11070254        0.18056223        0.46706257        2.18000000        2.00399223
    14.43584486       31.17339828        0.18249696        0.46630469        2.18000000        2.00130898
    14.52827232       31.23609402        0.18442862        0.46554814        2.18000000        1.99863139
    14.62014914       31.29878976        0.18635738        0.46479284        2.18000000        1.99595940
    14.71148967       31.36148550        0.18828336        0.46403872        2.18000000        1.99329296
    14.80230772       31.42418124        0.19020671        0.46328571        2.18000000        1.99063202
    14.89261647       31.48687699        0.19212756        0.46253374        2.18000000        1.98797654
    14.98242856       31.54957273        0.19404603        0.46178274        2.18000000        1.98532645
    15.07175612       31.61226847        0.19596225        0.46103265        2.18000000        1.98268173
    15.16061080       31.67496421        0.19787632        0.46028342        2.18000000        1.98004231
    15.24900376       31.73765995        0.19978835        0.45953497        2.18000000        1.97740815
    15.33694577       31.80035570        0.20169845        0.45878726        2.18000000        1.97477921
    15.42444713       31.86305144        0.20360672        0.45804023        2.18000000        1.97215543
    15.51151780       31.92574718        0.20551325        0.45729384        2.18000000        1.96953678
    15.59816732       31.98844292        0.20741813        0.45654801        2.18000000        1.96692321
    15.68440491       32.05113866        0.20932146        0.45580272        2.18000000        1.96431467
    15.77023944       32.11383440        0.21122331        0.45505791        2.18000000        1.96171112
    15.85567945       32.17653015        0.21312376        0.45431353        2.18000000        1.95911252
    15.94073320       32.23922589        0.21502290        0.45356955        2.18000000        1.95651883
    16.02540863       32.30192163        0.21692079        0.45282591        2.18000000        1.95393000
    16.10971342       32.36461737        0.21881751        0.45208258        2.18000000        1.95134599
    16.19365499       32.42731311        0.22071312        0.45133952        2.18000000        1.94876677
    16.27724050       32.49000885        0.22260770        0.45059668        2.18000000        1.94619228
    16.36047687       32.55270460        0.22450129        0.44985403        2.18000000        1.94362250
    16.44337079       32.61540034        0.22639397        0.44911154        2.18000000        1.94105738
    16.52592874       32.67809608        0.22828579        0.44836916        2.18000000        1.93849688
    16.60815698       32.74079182        0.23017681        0.44762686        2.18000000        1.93594096
    16.69006156       32.80348756        0.23206708        0.44688460        2.18000000        1.93338960
    16.77164836       32.86618330        0.23395665        0.44614236        2.18000000        1.93084274
    16.85292307       32.92887905        0.23584557        0.44540011        2.18000000        1.92830035
    16.93389119       32.99157479        0.23773389        0.44465780        2.18000000        1.92576240
    17.01455807       33.05427053        0.23962166        0.44391541        2.18000000        1.92322885
    17.09492888       33.11696627        0.24150891        0.44317291        2.18000000        1.92069966
    17.17500865       33.17966201        0.24339570        0.44243028        2.18000000        1.91817480
    17.25480224       33.24235775        0.24528205        0.44168747        2.18000000        1.91565423
    17.33431439       33.30505350        0.24716802        0.44094448        2.18000000        1.91313792
    17.41354969       33.36774924        0.24905364        0.44020126        2.18000000        1.91062584
    17.49251260       33.43044498        0.25093894        0.43945779        2.18000000        1.90811794
    17.57120745       33.49314072        0.25282397        0.43871405        2.18000000        1.90561421
    17.64963846       33.55583646        0.25470874        0.43797001        2.18000000        1.90311460
    17.72780970       33.61853220        0.25659331        0.43722565        2.18000000        1.90061908
    17.80572516       33.68122795        0.25847769        0.43648094        2.18000000        1.89812763
    17.88338871       33.74392369        0.26036192        0.43573587        2.18000000        1.89564020
    17.96080411       33.80661943        0.26224602        0.43499040        2.18000000        1.89315678
    18.03797502       33.86931517        0.26413003        0.43424451        2.18000000        1.89067732
    18.11490501       33.93201091        0.26601397        0.43349818        2.18000000        1.88820179
    18.19159754       33.99470665        0.26789787        0.43275140        2.18000000        1.88573018
    18.26805599       34.05740240        0.26978175        0.43200414        2.18000000        1.88326244
    18.34428366       34.12009814        0.27166563        0.43125637        2.18000000        1.88079855
    18.42028374       34.18279388        0.27354954        0.43050809        2.18000000        1.87833847
    18.49605936       34.24548962        0.27543351        0.42975926        2.18000000        1.87588219
    18.57161356       34.30818536        0.27731754        0.42900988        2.18000000        1.87342967
    18.64694930       34.37088111        0.27920167        0.42825991        2.18000000        1.87098088
    18.72206950       34.43357685        0.28108591        0.42750935        2.18000000        1.86853579
    18.79697695       34.49627259        0.28297028        0.42675817        2.18000000        1.86609439
    18.87167442       34.55896833        0.28485480        0.42600635        2.18000000        1.86365663
    18.94616458       34.62166407        0.28673949        0.42525388        2.18000000        1.86122251
    19.02045006       34.68435981        0.28862436        0.42450075        2.18000000        1.85879197
    19.09453342       34.74705556        0.29050943        0.42374692        2.18000000        1.85636502
    19.16841715       34.80975130        0.29239472        0.42299239        2.18000000        1.85394160
    19.24210368       34.87244704        0.29428023        0.42223714        2.18000000        1.85152171
    19.31559540       34.93514278        0.29616599        0.42148115        2.18000000        1.84910531
    19.38889462       34.99783852        0.29805201        0.42072442        2.18000000        1.84669239
    19.46200363       35.06053426        0.29993830        0.41996691        2.18000000        1.84428291
    19.53492464       35.12323001        0.30182487        0.41920861        2.18000000        1.84187685
    19.60765981       35.18592575        0.30371174        0.41844952        2.18000000        1.83947419
    19.68021127       35.24862149        0.30559892        0.41768961        2.18000000        1.83707491
    19.75258108       35.31131723        0.30748641        0.41692888        2.18000000        1.83467897
    19.82477127       35.37401297        0.30937423        0.41616729        2.18000000        1.83228636
    19.89678382       35.43670871        0.31126239        0.41540485        2.18000000        1.82989706
    19.96862068       35.49940446        0.31315091        0.41464154        2.18000000        1.82751104
    20.04028371       35.56210020        0.31503977        0.41387734        2.18000000        1.82512828
    20.11177479       35.62479594        0.31692901        0.41311223        2.18000000        1.82274875
    20.18309574       35.68749168        0.31881862        0.41234621        2.18000000        1.82037244
    20.25424830       35.75018742        0.32070861        0.41157927        2.18000000        1.81799933
    20.32523423       35.81288316        0.32259900        0.41081138        2.18000000        1.81562938
    20.39605523       35.87557891        0.32448978        0.41004254        2.18000000        1.81326259
    20.46671295       35.93827465        0.32638097        0.40927273        2.18000000        1.81089893
    20.53720903       36.00097039        0.32827257        0.40850193        2.18000000        1.80853838
    20.60754506       36.06366613        0.33016458        0.40773015        2.18000000        1.80618092
    20.67772260       36.12636187        0.33205702        0.40695736        2.18000000        1.80382653
    20.74774319       36.18905761        0.33394989        0.40618354        2.18000000        1.80147519
    20.81760831       36.25175336        0.33584319        0.40540870        2.18000000        1.79912687
    20.88731944       36.31444910        0.33773693        0.40463282        2.18000000        1.79678157
    20.95687801       36.37714484        0.33963111        0.40385588        2.18000000        1.79443926
    21.02628544       36.43984058        0.34152574        0.40307787        2.18000000        1.79209992
    21.09554310       36.50253632        0.34342082        0.40229879        2.18000000        1.78976354
    21.16465235       36.56523206        0.34531636        0.40151861        2.18000000        1.78743008
    21.23361452       36.62792781        0.34721235        0.40073733        2.18000000        1.78509955
    21.30243090       36.69062355        0.34910881        0.39995494        2.18000000        1.78277191
    21.37110277       36.75331929        0.35100573        0.39917143        2.18000000        1.78044716
    21.43963137       36.81601503        0.35290312        0.39838678        2.18000000        1.77812526
    21.50801795       36.87871077        0.35480097        0.39760098        2.18000000        1.77580622
    21.57626369       36.94140652        0.35669930        0.39681403        2.18000000        1.77348999
    21.64436977       37.00410226        0.35859810        0.39602590        2.18000000        1.77117658
    21.71233736       37.06679800        0.36049738        0.39523660        2.18000000        1.76886597
    21.78016758       37.12949374        0.36239713        0.39444610        2.18000000        1.76655813
    21.84786155       37.19218948        0.36429737        0.39365441        2.18000000        1.76425305
    21.91542037       37.25488522        0.36619808        0.39286150        2.18000000        1.76195071
    21.98284509       37.31758097        0.36809927        0.39206737        2.18000000        1.75965110
    22.05013677       37.38027671        0.37000094        0.39127201        2.18000000        1.75735421
    22.11729645       37.44297245        0.37190309        0.39047541        2.18000000        1.75506001
    22.18432513       37.50566819        0.37380572        0.38967756        2.18000000        1.75276849
    22.25122381       37.56836393        0.37570883        0.38887844        2.18000000        1.75047963
    22.31799347       37.63105967        0.37761243        0.38807805        2.18000000        1.74819343
    22.38463506       37.69375542        0.37951650        0.38727638        2.18000000        1.74590986
    22.45114952       37.75645116        0.38142106        0.38647341        2.18000000        1.74362891
    22.51753777       37.81914690        0.38332609        0.38566914        2.18000000        1.74135056
    22.58380071       37.88184264        0.38523161        0.38486356        2.18000000        1.73907481
    22.64993925       37.94453838        0.38713760        0.38405666        2.18000000        1.73680162
    22.71595425       38.00723412        0.38904407        0.38324842        2.18000000        1.73453101
    22.78184656       38.06992987        0.39095101        0.38243885        2.18000000        1.73226294
    22.84761703       38.13262561        0.39285843        0.38162792        2.18000000        1.72999740
    22.91326650       38.19532135        0.39476632        0.38081563        2.18000000        1.72773438
    22.97879576       38.25801709        0.39667468        0.38000198        2.18000000        1.72547387
    23.04420562       38.32071283        0.39858351        0.37918694        2.18000000        1.72321585
    23.10949686       38.38340857        0.40049281        0.37837052        2.18000000        1.72096031
    23.17467025       38.44610432        0.40240257        0.37755270        2.18000000        1.71870724
    23.23972654       38.50880006        0.40431280        0.37673347        2.18000000        1.71645662
    23.30466648       38.57149580        0.40622349        0.37591283        2.18000000        1.71420843
