#  Theta paroi en deg Angle Choc en deg       Kp           Inverse Mach       Mach amont       Mach aval
     0.00000000       28.73565374        0.00000000        0.51923077        2.08000000
     1.96351637       28.73749168        0.00706312        0.51607584        2.08000000        2.07991256
     2.35597011       28.74006327        0.00960211        0.51494751        2.08000000        2.07979023
     2.78399220       28.74483583        0.01269477        0.51357713        2.08000000        2.07956325
     3.24845781       28.75327670        0.01640342        0.51193950        2.08000000        2.07916193
     3.72907098       28.76685318        0.02060041        0.51009353        2.08000000        2.07851680
     4.21359419       28.78703260        0.02517852        0.50808855        2.08000000        2.07755872
     4.69697304       28.81528227        0.03007420        0.50595413        2.08000000        2.07621910
     5.17795716       28.85306951        0.03525609        0.50370546        2.08000000        2.07443016
     5.65708320       28.90186165        0.04071365        0.50134847        2.08000000        2.07212517
     6.13568253       28.96312599        0.04644986        0.49888319        2.08000000        2.06923883
     6.53305385       29.02439034        0.05142271        0.49675564        2.08000000        2.06636114
     6.87768679       29.08565469        0.05588667        0.49485317        2.08000000        2.06349203
     7.18497413       29.14691903        0.05998332        0.49311318        2.08000000        2.06063139
     7.46425481       29.20818338        0.06380055        0.49149683        2.08000000        2.05777914
     7.72165648       29.26944772        0.06739714        0.48997816        2.08000000        2.05493521
     7.96143434       29.33071207        0.07081452        0.48853887        2.08000000        2.05209949
     8.18667343       29.39197642        0.07408315        0.48716552        2.08000000        2.04927192
     8.39968748       29.45324076        0.07722614        0.48584792        2.08000000        2.04645242
     8.60225989       29.51450511        0.08026146        0.48457812        2.08000000        2.04364089
     8.79579669       29.57576946        0.08320345        0.48334980        2.08000000        2.04083726
     8.98142759       29.63703380        0.08606367        0.48215786        2.08000000        2.03804145
     9.16007502       29.69829815        0.08885168        0.48099807        2.08000000        2.03525339
     9.33250276       29.75956249        0.09157541        0.47986693        2.08000000        2.03247300
     9.49935093       29.82082684        0.09424157        0.47876149        2.08000000        2.02970020
     9.66116169       29.88209119        0.09685585        0.47767921        2.08000000        2.02693493
     9.81839867       29.94335553        0.09942315        0.47661793        2.08000000        2.02417709
     9.97146166       30.00461988        0.10194773        0.47557577        2.08000000        2.02142663
    10.12069798       30.06588423        0.10443327        0.47455109        2.08000000        2.01868348
    10.26641148       30.12714857        0.10688304        0.47354245        2.08000000        2.01594755
    10.40886959       30.18841292        0.10929990        0.47254858        2.08000000        2.01321878
    10.54830906       30.24967726        0.11168640        0.47156833        2.08000000        2.01049711
    10.68494050       30.31094161        0.11404482        0.47060071        2.08000000        2.00778246
    10.81895227       30.37220596        0.11637719        0.46964480        2.08000000        2.00507477
    10.95051339       30.43347030        0.11868534        0.46869978        2.08000000        2.00237397
    11.07977632       30.49473465        0.12097094        0.46776492        2.08000000        1.99968000
    11.20687898       30.55599900        0.12323548        0.46683954        2.08000000        1.99699278
    11.33194663       30.61726334        0.12548034        0.46592303        2.08000000        1.99431227
    11.45509336       30.67852769        0.12770675        0.46501483        2.08000000        1.99163839
    11.57642345       30.73979203        0.12991585        0.46411443        2.08000000        1.98897108
    11.69603244       30.80105638        0.13210869        0.46322136        2.08000000        1.98631028
    11.81400814       30.86232073        0.13428624        0.46233518        2.08000000        1.98365593
    11.93043139       30.92358507        0.13644938        0.46145549        2.08000000        1.98100798
    12.04537689       30.98484942        0.13859892        0.46058193        2.08000000        1.97836635
    12.15891371       31.04611377        0.14073563        0.45971414        2.08000000        1.97573100
    12.27110594       31.10737811        0.14286021        0.45885181        2.08000000        1.97310186
    12.38201311       31.16864246        0.14497331        0.45799463        2.08000000        1.97047888
    12.49169065       31.22990680        0.14707554        0.45714233        2.08000000        1.96786201
    12.60019025       31.29117115        0.14916747        0.45629466        2.08000000        1.96525118
    12.70756020       31.35243550        0.15124963        0.45545135        2.08000000        1.96264634
    12.81384569       31.41369984        0.15332251        0.45461220        2.08000000        1.96004744
    12.91908906       31.47496419        0.15538657        0.45377697        2.08000000        1.95745442
    13.02333006       31.53622854        0.15744226        0.45294547        2.08000000        1.95486724
    13.12660604       31.59749288        0.15948997        0.45211751        2.08000000        1.95228583
    13.22895218       31.65875723        0.16153010        0.45129291        2.08000000        1.94971015
    13.33040159       31.72002157        0.16356301        0.45047149        2.08000000        1.94714015
    13.43098554       31.78128592        0.16558904        0.44965310        2.08000000        1.94457578
    13.53073356       31.84255027        0.16760850        0.44883759        2.08000000        1.94201698
    13.62967359       31.90381461        0.16962171        0.44802480        2.08000000        1.93946371
    13.72783206       31.96507896        0.17162894        0.44721461        2.08000000        1.93691591
    13.82523404       32.02634331        0.17363048        0.44640688        2.08000000        1.93437355
    13.92190330       32.08760765        0.17562658        0.44560149        2.08000000        1.93183658
    14.01786243       32.14887200        0.17761748        0.44479832        2.08000000        1.92930493
    14.11313288       32.21013635        0.17960342        0.44399726        2.08000000        1.92677858
    14.20773509       32.27140069        0.18158461        0.44319820        2.08000000        1.92425748
    14.30168847       32.33266504        0.18356126        0.44240103        2.08000000        1.92174157
    14.39501159       32.39392938        0.18553357        0.44160567        2.08000000        1.91923083
    14.48772210       32.45519373        0.18750174        0.44081201        2.08000000        1.91672519
    14.57983688       32.51645808        0.18946593        0.44001997        2.08000000        1.91422462
    14.67137203       32.57772242        0.19142633        0.43922947        2.08000000        1.91172907
    14.76234298       32.63898677        0.19338309        0.43844041        2.08000000        1.90923851
    14.85276446       32.70025112        0.19533638        0.43765272        2.08000000        1.90675289
    14.94265057       32.76151546        0.19728633        0.43686632        2.08000000        1.90427216
    15.03201484       32.82277981        0.19923309        0.43608114        2.08000000        1.90179630
    15.12087022       32.88404415        0.20117681        0.43529712        2.08000000        1.89932525
    15.20922914       32.94530850        0.20311760        0.43451418        2.08000000        1.89685898
    15.29710353       33.00657285        0.20505559        0.43373225        2.08000000        1.89439745
    15.38450484       33.06783719        0.20699090        0.43295129        2.08000000        1.89194062
    15.47144407       33.12910154        0.20892364        0.43217121        2.08000000        1.88948844
    15.55793180       33.19036589        0.21085393        0.43139198        2.08000000        1.88704089
    15.64397822       33.25163023        0.21278186        0.43061352        2.08000000        1.88459793
    15.72959312       33.31289458        0.21470755        0.42983579        2.08000000        1.88215951
    15.81478592       33.37415892        0.21663107        0.42905874        2.08000000        1.87972560
    15.89956572       33.43542327        0.21855253        0.42828230        2.08000000        1.87729617
    15.98394128       33.49668762        0.22047201        0.42750645        2.08000000        1.87487117
    16.06792103       33.55795196        0.22238961        0.42673111        2.08000000        1.87245058
    16.15151314       33.61921631        0.22430539        0.42595626        2.08000000        1.87003436
    16.23472545       33.68048066        0.22621944        0.42518185        2.08000000        1.86762246
    16.31756556       33.74174500        0.22813183        0.42440783        2.08000000        1.86521487
    16.40004082       33.80300935        0.23004263        0.42363416        2.08000000        1.86281154
    16.48215831       33.86427369        0.23195193        0.42286079        2.08000000        1.86041244
    16.56392488       33.92553804        0.23385977        0.42208770        2.08000000        1.85801754
    16.64534716       33.98680239        0.23576623        0.42131485        2.08000000        1.85562681
    16.72643156       34.04806673        0.23767136        0.42054218        2.08000000        1.85324020
    16.80718429       34.10933108        0.23957523        0.41976968        2.08000000        1.85085770
    16.88761136       34.17059543        0.24147790        0.41899730        2.08000000        1.84847927
    16.96771861       34.23185977        0.24337941        0.41822501        2.08000000        1.84610487
    17.04751166       34.29312412        0.24527983        0.41745277        2.08000000        1.84373448
    17.12699598       34.35438846        0.24717920        0.41668056        2.08000000        1.84136807
    17.20617687       34.41565281        0.24907757        0.41590834        2.08000000        1.83900560
    17.28505947       34.47691716        0.25097500        0.41513609        2.08000000        1.83664705
    17.36364879       34.53818150        0.25287151        0.41436376        2.08000000        1.83429239
    17.44194965       34.59944585        0.25476717        0.41359133        2.08000000        1.83194158
    17.51996675       34.66071020        0.25666201        0.41281878        2.08000000        1.82959461
    17.59770467       34.72197454        0.25855607        0.41204607        2.08000000        1.82725143
    17.67516783       34.78323889        0.26044940        0.41127318        2.08000000        1.82491202
    17.75236054       34.84450323        0.26234203        0.41050008        2.08000000        1.82257636
    17.82928700       34.90576758        0.26423399        0.40972675        2.08000000        1.82024442
    17.90595126       34.96703193        0.26612532        0.40895316        2.08000000        1.81791616
    17.98235729       35.02829627        0.26801606        0.40817928        2.08000000        1.81559157
    18.05850894       35.08956062        0.26990625        0.40740509        2.08000000        1.81327061
    18.13440997       35.15082497        0.27179590        0.40663057        2.08000000        1.81095326
    18.21006399       35.21208931        0.27368505        0.40585569        2.08000000        1.80863950
    18.28547458       35.27335366        0.27557374        0.40508043        2.08000000        1.80632929
    18.36064518       35.33461800        0.27746198        0.40430477        2.08000000        1.80402262
    18.43557917       35.39588235        0.27934981        0.40352869        2.08000000        1.80171945
    18.51027981       35.45714670        0.28123726        0.40275216        2.08000000        1.79941976
    18.58475031       35.51841104        0.28312434        0.40197516        2.08000000        1.79712353
    18.65899377       35.57967539        0.28501109        0.40119768        2.08000000        1.79483074
    18.73301322       35.64093974        0.28689752        0.40041969        2.08000000        1.79254135
    18.80681164       35.70220408        0.28878367        0.39964117        2.08000000        1.79025535
    18.88039190       35.76346843        0.29066955        0.39886211        2.08000000        1.78797271
    18.95375680       35.82473277        0.29255518        0.39808248        2.08000000        1.78569341
    19.02690911       35.88599712        0.29444059        0.39730227        2.08000000        1.78341742
    19.09985150       35.94726147        0.29632579        0.39652145        2.08000000        1.78114473
    19.17258658       36.00852581        0.29821080        0.39574001        2.08000000        1.77887531
    19.24511690       36.06979016        0.30009564        0.39495794        2.08000000        1.77660913
    19.31744495       36.13105451        0.30198033        0.39417520        2.08000000        1.77434618
    19.38957316       36.19231885        0.30386489        0.39339180        2.08000000        1.77208644
    19.46150390       36.25358320        0.30574934        0.39260770        2.08000000        1.76982988
    19.53323952       36.31484754        0.30763367        0.39182289        2.08000000        1.76757648
    19.60478225       36.37611189        0.30951793        0.39103736        2.08000000        1.76532622
    19.67613432       36.43737624        0.31140211        0.39025110        2.08000000        1.76307908
    19.74729790       36.49864058        0.31328623        0.38946407        2.08000000        1.76083504
    19.81827510       36.55990493        0.31517031        0.38867628        2.08000000        1.75859408
    19.88906798       36.62116928        0.31705436        0.38788769        2.08000000        1.75635617
    19.95967857       36.68243362        0.31893839        0.38709831        2.08000000        1.75412131
    20.03010885       36.74369797        0.32082241        0.38630810        2.08000000        1.75188946
    20.10036075       36.80496231        0.32270644        0.38551707        2.08000000        1.74966062
    20.17043617       36.86622666        0.32459048        0.38472519        2.08000000        1.74743475
    20.24033694       36.92749101        0.32647455        0.38393244        2.08000000        1.74521185
    20.31006490       36.98875535        0.32835865        0.38313883        2.08000000        1.74299189
    20.37962179       37.05001970        0.33024281        0.38234432        2.08000000        1.74077485
    20.44900937       37.11128405        0.33212701        0.38154891        2.08000000        1.73856072
    20.51822933       37.17254839        0.33401129        0.38075258        2.08000000        1.73634947
    20.58728332       37.23381274        0.33589563        0.37995532        2.08000000        1.73414110
    20.65617298       37.29507708        0.33778006        0.37915712        2.08000000        1.73193557
    20.72489991       37.35634143        0.33966458        0.37835796        2.08000000        1.72973289
    20.79346565       37.41760578        0.34154919        0.37755784        2.08000000        1.72753301
    20.86187174       37.47887012        0.34343391        0.37675672        2.08000000        1.72533594
    20.93011968       37.54013447        0.34531874        0.37595462        2.08000000        1.72314165
    20.99821094       37.60139882        0.34720368        0.37515150        2.08000000        1.72095012
    21.06614694       37.66266316        0.34908875        0.37434737        2.08000000        1.71876134
    21.13392910       37.72392751        0.35097395        0.37354220        2.08000000        1.71657530
    21.20155880       37.78519185        0.35285928        0.37273599        2.08000000        1.71439197
    21.26903739       37.84645620        0.35474475        0.37192872        2.08000000        1.71221134
    21.33636619       37.90772055        0.35663037        0.37112038        2.08000000        1.71003339
    21.40354651       37.96898489        0.35851613        0.37031097        2.08000000        1.70785811
    21.47057962       38.03024924        0.36040205        0.36950046        2.08000000        1.70568548
    21.53746676       38.09151359        0.36228813        0.36868884        2.08000000        1.70351549
    21.60420917       38.15277793        0.36417437        0.36787611        2.08000000        1.70134813
    21.67080805       38.21404228        0.36606077        0.36706226        2.08000000        1.69918337
    21.73726456       38.27530662        0.36794735        0.36624726        2.08000000        1.69702120
    21.80357987       38.33657097        0.36983409        0.36543112        2.08000000        1.69486160
    21.86975511       38.39783532        0.37172101        0.36461382        2.08000000        1.69270457
    21.93579140       38.45909966        0.37360811        0.36379534        2.08000000        1.69055009
    22.00168982       38.52036401        0.37549539        0.36297569        2.08000000        1.68839814
    22.06745143       38.58162836        0.37738284        0.36215484        2.08000000        1.68624871
    22.13307731       38.64289270        0.37927049        0.36133279        2.08000000        1.68410179
    22.19856847       38.70415705        0.38115831        0.36050953        2.08000000        1.68195735
    22.26392592       38.76542139        0.38304633        0.35968504        2.08000000        1.67981540
    22.32915065       38.82668574        0.38493453        0.35885931        2.08000000        1.67767591
    22.39424365       38.88795009        0.38682293        0.35803234        2.08000000        1.67553887
    22.45920586       38.94921443        0.38871151        0.35720412        2.08000000        1.67340426
    22.52403824       39.01047878        0.39060029        0.35637463        2.08000000        1.67127208
    22.58874168       39.07174313        0.39248926        0.35554387        2.08000000        1.66914232
    22.65331711       39.13300747        0.39437842        0.35471181        2.08000000        1.66701495
    22.71776541       39.19427182        0.39626778        0.35387847        2.08000000        1.66488996
    22.78208745       39.25553616        0.39815733        0.35304382        2.08000000        1.66276735
    22.84628408       39.31680051        0.40004707        0.35220785        2.08000000        1.66064711
    22.91035616       39.37806486        0.40193700        0.35137056        2.08000000        1.65852921
    22.97430449       39.43932920        0.40382713        0.35053193        2.08000000        1.65641364
    23.03812990       39.50059355        0.40571745        0.34969196        2.08000000        1.65430040
    23.10183318       39.56185790        0.40760796        0.34885063        2.08000000        1.65218948
    23.16541511       39.62312224        0.40949867        0.34800794        2.08000000        1.65008085
    23.22887647       39.68438659        0.41138956        0.34716388        2.08000000        1.64797451
    23.29221800       39.74565093        0.41328064        0.34631843        2.08000000        1.64587045
