#  Theta paroi en deg Angle Choc en deg       Kp           Inverse Mach       Mach amont       Mach aval
     0.00000000       30.67742447        0.00000000        0.48979592        1.96000000
     2.01669151       30.67920415        0.00757125        0.48639074        1.96000000        1.95992127
     2.41521150       30.68169423        0.01026701        0.48518315        1.96000000        1.95981113
     2.85185025       30.68631554        0.01356519        0.48370904        1.96000000        1.95960674
     3.32668162       30.69448887        0.01752976        0.48194185        1.96000000        1.95924538
     3.81845638       30.70763504        0.02202183        0.47994565        1.96000000        1.95866443
     4.31429471       30.72717487        0.02692379        0.47777449        1.96000000        1.95780160
     4.80876662       30.75452917        0.03216461        0.47546127        1.96000000        1.95659502
     5.30039784       30.79111875        0.03770769        0.47302335        1.96000000        1.95498345
     5.78958050       30.83836442        0.04353875        0.47046808        1.96000000        1.95290655
     6.27754293       30.89768700        0.04965790        0.46779640        1.96000000        1.95030511
     6.68208908       30.95700957        0.05495358        0.46549205        1.96000000        1.94771069
     7.03246027       31.01633215        0.05969946        0.46343285        1.96000000        1.94512321
     7.34446034       31.07565472        0.06404795        0.46155079        1.96000000        1.94254263
     7.62767984       31.13497730        0.06809375        0.45980366        1.96000000        1.93996886
     7.88841262       31.19429988        0.07190019        0.45816321        1.96000000        1.93740186
     8.13102995       31.25362245        0.07551199        0.45660954        1.96000000        1.93484155
     8.35870136       31.31294503        0.07896199        0.45512800        1.96000000        1.93228789
     8.57380425       31.37226760        0.08227515        0.45370748        1.96000000        1.92974081
     8.77817121       31.43159018        0.08547091        0.45233933        1.96000000        1.92720025
     8.97324718       31.49091275        0.08856471        0.45101666        1.96000000        1.92466615
     9.16019321       31.55023533        0.09156910        0.44973388        1.96000000        1.92213846
     9.33995744       31.60955790        0.09449439        0.44848641        1.96000000        1.91961712
     9.51332491       31.66888048        0.09734917        0.44727041        1.96000000        1.91710207
     9.68095362       31.72820306        0.10014070        0.44608265        1.96000000        1.91459326
     9.84340094       31.78752563        0.10287515        0.44492038        1.96000000        1.91209063
    10.00114350       31.84684821        0.10555782        0.44378122        1.96000000        1.90959413
    10.15459229       31.90617078        0.10819332        0.44266313        1.96000000        1.90710370
    10.30410444       31.96549336        0.11078566        0.44156431        1.96000000        1.90461930
    10.44999235       32.02481593        0.11333836        0.44048318        1.96000000        1.90214086
    10.59253102       32.08413851        0.11585454        0.43941836        1.96000000        1.89966834
    10.73196389       32.14346108        0.11833697        0.43836859        1.96000000        1.89720169
    10.86850755       32.20278366        0.12078812        0.43733279        1.96000000        1.89474085
    11.00235565       32.26210624        0.12321019        0.43630994        1.96000000        1.89228578
    11.13368207       32.32142881        0.12560519        0.43529917        1.96000000        1.88983642
    11.26264358       32.38075139        0.12797491        0.43429965        1.96000000        1.88739273
    11.38938204       32.44007396        0.13032098        0.43331065        1.96000000        1.88495466
    11.51402627       32.49939654        0.13264489        0.43233151        1.96000000        1.88252217
    11.63669362       32.55871911        0.13494800        0.43136161        1.96000000        1.88009519
    11.75749138       32.61804169        0.13723155        0.43040039        1.96000000        1.87767370
    11.87651779       32.67736426        0.13949668        0.42944733        1.96000000        1.87525763
    11.99386318       32.73668684        0.14174443        0.42850196        1.96000000        1.87284695
    12.10961075       32.79600942        0.14397577        0.42756384        1.96000000        1.87044161
    12.22383729       32.85533199        0.14619160        0.42663257        1.96000000        1.86804157
    12.33661389       32.91465457        0.14839274        0.42570775        1.96000000        1.86564678
    12.44800648       32.97397714        0.15057996        0.42478906        1.96000000        1.86325720
    12.55807631       33.03329972        0.15275397        0.42387615        1.96000000        1.86087278
    12.66688040       33.09262229        0.15491544        0.42296872        1.96000000        1.85849349
    12.77447194       33.15194487        0.15706499        0.42206649        1.96000000        1.85611928
    12.88090060       33.21126744        0.15920319        0.42116919        1.96000000        1.85375011
    12.98621289       33.27059002        0.16133060        0.42027657        1.96000000        1.85138594
    13.09045238       33.32991259        0.16344771        0.41938840        1.96000000        1.84902672
    13.19365996       33.38923517        0.16555501        0.41850444        1.96000000        1.84667242
    13.29587407       33.44855775        0.16765294        0.41762450        1.96000000        1.84432300
    13.39713090       33.50788032        0.16974192        0.41674837        1.96000000        1.84197842
    13.49746455       33.56720290        0.17182236        0.41587588        1.96000000        1.83963864
    13.59690717       33.62652547        0.17389462        0.41500684        1.96000000        1.83730362
    13.69548916       33.68584805        0.17595906        0.41414108        1.96000000        1.83497332
    13.79323926       33.74517062        0.17801601        0.41327846        1.96000000        1.83264771
    13.89018469       33.80449320        0.18006579        0.41241881        1.96000000        1.83032675
    13.98635124       33.86381577        0.18210869        0.41156200        1.96000000        1.82801040
    14.08176337       33.92313835        0.18414501        0.41070789        1.96000000        1.82569862
    14.17644432       33.98246093        0.18617501        0.40985635        1.96000000        1.82339139
    14.27041620       34.04178350        0.18819895        0.40900726        1.96000000        1.82108866
    14.36369999       34.10110608        0.19021706        0.40816050        1.96000000        1.81879039
    14.45631572       34.16042865        0.19222958        0.40731596        1.96000000        1.81649656
    14.54828247       34.21975123        0.19423672        0.40647353        1.96000000        1.81420713
    14.63961841       34.27907380        0.19623871        0.40563311        1.96000000        1.81192207
    14.73034091       34.33839638        0.19823573        0.40479460        1.96000000        1.80964134
    14.82046657       34.39771895        0.20022797        0.40395790        1.96000000        1.80736491
    14.91001122       34.45704153        0.20221562        0.40312293        1.96000000        1.80509274
    14.99899006       34.51636411        0.20419885        0.40228961        1.96000000        1.80282481
    15.08741758       34.57568668        0.20617782        0.40145784        1.96000000        1.80056108
    15.17530771       34.63500926        0.20815269        0.40062755        1.96000000        1.79830151
    15.26267379       34.69433183        0.21012362        0.39979866        1.96000000        1.79604609
    15.34952858       34.75365441        0.21209074        0.39897109        1.96000000        1.79379477
    15.43588439       34.81297698        0.21405420        0.39814479        1.96000000        1.79154753
    15.52175299       34.87229956        0.21601412        0.39731967        1.96000000        1.78930433
    15.60714570       34.93162213        0.21797064        0.39649567        1.96000000        1.78706515
    15.69207342       34.99094471        0.21992388        0.39567274        1.96000000        1.78482996
    15.77654662       35.05026729        0.22187394        0.39485079        1.96000000        1.78259872
    15.86057537       35.10958986        0.22382095        0.39402979        1.96000000        1.78037141
    15.94416939       35.16891244        0.22576501        0.39320967        1.96000000        1.77814800
    16.02733802       35.22823501        0.22770623        0.39239037        1.96000000        1.77592845
    16.11009028       35.28755759        0.22964470        0.39157185        1.96000000        1.77371275
    16.19243486       35.34688016        0.23158052        0.39075405        1.96000000        1.77150086
    16.27438013       35.40620274        0.23351378        0.38993691        1.96000000        1.76929276
    16.35593420       35.46552531        0.23544456        0.38912040        1.96000000        1.76708841
    16.43710487       35.52484789        0.23737296        0.38830446        1.96000000        1.76488780
    16.51789969       35.58417047        0.23929905        0.38748905        1.96000000        1.76269089
    16.59832596       35.64349304        0.24122292        0.38667413        1.96000000        1.76049766
    16.67839073       35.70281562        0.24314463        0.38585965        1.96000000        1.75830808
    16.75810080       35.76213819        0.24506426        0.38504556        1.96000000        1.75612213
    16.83746279       35.82146077        0.24698188        0.38423184        1.96000000        1.75393978
    16.91648308       35.88078334        0.24889756        0.38341844        1.96000000        1.75176100
    16.99516785       35.94010592        0.25081137        0.38260532        1.96000000        1.74958578
    17.07352309       35.99942849        0.25272336        0.38179244        1.96000000        1.74741408
    17.15155460       36.05875107        0.25463359        0.38097977        1.96000000        1.74524588
    17.22926801       36.11807364        0.25654213        0.38016728        1.96000000        1.74308115
    17.30666876       36.17739622        0.25844903        0.37935492        1.96000000        1.74091988
    17.38376215       36.23671880        0.26035434        0.37854267        1.96000000        1.73876204
    17.46055332       36.29604137        0.26225812        0.37773049        1.96000000        1.73660760
    17.53704722       36.35536395        0.26416042        0.37691836        1.96000000        1.73445655
    17.61324870       36.41468652        0.26606128        0.37610623        1.96000000        1.73230885
    17.68916245       36.47400910        0.26796075        0.37529408        1.96000000        1.73016449
    17.76479304       36.53333167        0.26985889        0.37448188        1.96000000        1.72802344
    17.84014488       36.59265425        0.27175573        0.37366961        1.96000000        1.72588568
    17.91522229       36.65197682        0.27365131        0.37285723        1.96000000        1.72375120
    17.99002945       36.71129940        0.27554568        0.37204471        1.96000000        1.72161996
    18.06457042       36.77062198        0.27743887        0.37123203        1.96000000        1.71949194
    18.13884917       36.82994455        0.27933093        0.37041917        1.96000000        1.71736713
    18.21286955       36.88926713        0.28122188        0.36960609        1.96000000        1.71524550
    18.28663530       36.94858970        0.28311178        0.36879277        1.96000000        1.71312704
    18.36015008       37.00791228        0.28500064        0.36797920        1.96000000        1.71101171
    18.43341742       37.06723485        0.28688851        0.36716533        1.96000000        1.70889951
    18.50644080       37.12655743        0.28877541        0.36635115        1.96000000        1.70679041
    18.57922357       37.18588000        0.29066139        0.36553664        1.96000000        1.70468438
    18.65176903       37.24520258        0.29254646        0.36472178        1.96000000        1.70258142
    18.72408036       37.30452516        0.29443065        0.36390653        1.96000000        1.70048150
    18.79616068       37.36384773        0.29631401        0.36309089        1.96000000        1.69838460
    18.86801303       37.42317031        0.29819654        0.36227482        1.96000000        1.69629070
    18.93964038       37.48249288        0.30007828        0.36145831        1.96000000        1.69419979
    19.01104561       37.54181546        0.30195926        0.36064134        1.96000000        1.69211184
    19.08223155       37.60113803        0.30383950        0.35982388        1.96000000        1.69002683
    19.15320094       37.66046061        0.30571901        0.35900592        1.96000000        1.68794475
    19.22395646       37.71978318        0.30759784        0.35818744        1.96000000        1.68586558
    19.29450074       37.77910576        0.30947599        0.35736842        1.96000000        1.68378930
    19.36483634       37.83842834        0.31135349        0.35654884        1.96000000        1.68171590
    19.43496573       37.89775091        0.31323036        0.35572867        1.96000000        1.67964534
    19.50489138       37.95707349        0.31510662        0.35490792        1.96000000        1.67757763
    19.57461565       38.01639606        0.31698229        0.35408654        1.96000000        1.67551274
    19.64414088       38.07571864        0.31885738        0.35326454        1.96000000        1.67345064
    19.71346934       38.13504121        0.32073193        0.35244188        1.96000000        1.67139134
    19.78260324       38.19436379        0.32260594        0.35161856        1.96000000        1.66933480
    19.85154475       38.25368636        0.32447942        0.35079455        1.96000000        1.66728102
    19.92029601       38.31300894        0.32635241        0.34996984        1.96000000        1.66522997
    19.98885909       38.37233151        0.32822491        0.34914442        1.96000000        1.66318164
    20.05723600       38.43165409        0.33009693        0.34831827        1.96000000        1.66113602
    20.12542874       38.49097667        0.33196850        0.34749137        1.96000000        1.65909308
    20.19343924       38.55029924        0.33383963        0.34666370        1.96000000        1.65705281
    20.26126941       38.60962182        0.33571032        0.34583526        1.96000000        1.65501520
    20.32892109       38.66894439        0.33758060        0.34500602        1.96000000        1.65298023
    20.39639612       38.72826697        0.33945048        0.34417597        1.96000000        1.65094788
    20.46369626       38.78758954        0.34131997        0.34334510        1.96000000        1.64891815
    20.53082325       38.84691212        0.34318907        0.34251339        1.96000000        1.64689101
    20.59777880       38.90623469        0.34505781        0.34168083        1.96000000        1.64486645
    20.66456457       38.96555727        0.34692619        0.34084741        1.96000000        1.64284445
    20.73118221       39.02487985        0.34879423        0.34001310        1.96000000        1.64082501
    20.79763330       39.08420242        0.35066193        0.33917790        1.96000000        1.63880810
    20.86391941       39.14352500        0.35252930        0.33834179        1.96000000        1.63679371
    20.93004208       39.20284757        0.35439636        0.33750476        1.96000000        1.63478183
    20.99600280       39.26217015        0.35626310        0.33666680        1.96000000        1.63277245
    21.06180306       39.32149272        0.35812955        0.33582789        1.96000000        1.63076554
    21.12744428       39.38081530        0.35999571        0.33498802        1.96000000        1.62876111
    21.19292789       39.44013787        0.36186159        0.33414718        1.96000000        1.62675912
    21.25825527       39.49946045        0.36372719        0.33330535        1.96000000        1.62475957
    21.32342777       39.55878303        0.36559252        0.33246252        1.96000000        1.62276245
    21.38844673       39.61810560        0.36745759        0.33161868        1.96000000        1.62076774
    21.45331344       39.67742818        0.36932241        0.33077382        1.96000000        1.61877544
    21.51802920       39.73675075        0.37118698        0.32992793        1.96000000        1.61678551
    21.58259524       39.79607333        0.37305131        0.32908098        1.96000000        1.61479797
    21.64701280       39.85539590        0.37491540        0.32823298        1.96000000        1.61281278
    21.71128309       39.91471848        0.37677927        0.32738391        1.96000000        1.61082994
    21.77540728       39.97404105        0.37864291        0.32653376        1.96000000        1.60884944
    21.83938653       40.03336363        0.38050633        0.32568251        1.96000000        1.60687127
    21.90322199       40.09268621        0.38236954        0.32483015        1.96000000        1.60489541
    21.96691475       40.15200878        0.38423253        0.32397668        1.96000000        1.60292184
    22.03046593       40.21133136        0.38609533        0.32312208        1.96000000        1.60095057
    22.09387659       40.27065393        0.38795792        0.32226635        1.96000000        1.59898157
    22.15714779       40.32997651        0.38982031        0.32140946        1.96000000        1.59701484
    22.22028055       40.38929908        0.39168251        0.32055141        1.96000000        1.59505036
    22.28327590       40.44862166        0.39354452        0.31969219        1.96000000        1.59308812
    22.34613483       40.50794423        0.39540634        0.31883178        1.96000000        1.59112811
    22.40885831       40.56726681        0.39726798        0.31797019        1.96000000        1.58917033
    22.47144730       40.62658938        0.39912943        0.31710739        1.96000000        1.58721475
    22.53390274       40.68591196        0.40099071        0.31624337        1.96000000        1.58526137
    22.59622555       40.74523454        0.40285182        0.31537813        1.96000000        1.58331017
    22.65841666       40.80455711        0.40471274        0.31451166        1.96000000        1.58136115
    22.72047693       40.86387969        0.40657350        0.31364394        1.96000000        1.57941430
    22.78240725       40.92320226        0.40843409        0.31277496        1.96000000        1.57746960
    22.84420847       40.98252484        0.41029451        0.31190472        1.96000000        1.57552705
    22.90588143       41.04184741        0.41215476        0.31103320        1.96000000        1.57358663
    22.96742697       41.10116999        0.41401485        0.31016040        1.96000000        1.57164833
    23.02884590       41.16049256        0.41587477        0.30928630        1.96000000        1.56971215
    23.09013900       41.21981514        0.41773453        0.30841089        1.96000000        1.56777808
    23.15130707       41.27913772        0.41959412        0.30753417        1.96000000        1.56584609
    23.21235087       41.33846029        0.42145356        0.30665612        1.96000000        1.56391619
