#  Theta paroi en deg Angle Choc en deg       Kp           Inverse Mach       Mach amont       Mach aval
     0.00000000       20.76953973        0.00000000        0.64539007        2.82000000
     1.66452010       20.77161665        0.00475870        0.64322113        2.82000000        2.81985368
     2.00868762       20.77452262        0.00651493        0.64242894        2.82000000        2.81964898
     2.37872886       20.77991576        0.00862394        0.64148337        2.82000000        2.81926921
     2.77784694       20.78945418        0.01113529        0.64036541        2.82000000        2.81859791
     3.19017897       20.80479599        0.01397006        0.63911368        2.82000000        2.81751916
     3.60643085       20.82759930        0.01706485        0.63775917        2.82000000        2.81591800
     4.02318219       20.85952224        0.02038633        0.63631903        2.82000000        2.81368096
     4.44008531       20.90222290        0.02392309        0.63480053        2.82000000        2.81069674
     4.85820793       20.95735941        0.02767800        0.63320476        2.82000000        2.80685696
     5.27922712       21.02658987        0.03166340        0.63152884        2.82000000        2.80205699
     5.63166169       21.09582033        0.03515401        0.63007554        2.82000000        2.79728041
     5.93960624       21.16505079        0.03831737        0.62876984        2.82000000        2.79252684
     6.21606571       21.23428125        0.04124637        0.62757017        2.82000000        2.78779589
     6.46892475       21.30351171        0.04399851        0.62645087        2.82000000        2.78308721
     6.70335390       21.37274217        0.04661211        0.62539482        2.82000000        2.77840043
     6.92294216       21.44197263        0.04911411        0.62438998        2.82000000        2.77373521
     7.13029067       21.51120309        0.05152428        0.62342752        2.82000000        2.76909119
     7.32734957       21.58043355        0.05385758        0.62250077        2.82000000        2.76446804
     7.51562162       21.64966401        0.05612563        0.62160454        2.82000000        2.75986543
     7.69629131       21.71889447        0.05833765        0.62073469        2.82000000        2.75528303
     7.87031008       21.78812493        0.06050110        0.61988790        2.82000000        2.75072054
     8.03845469       21.85735539        0.06262210        0.61906142        2.82000000        2.74617763
     8.20136816       21.92658585        0.06470573        0.61825297        2.82000000        2.74165400
     8.35958925       21.99581631        0.06675627        0.61746062        2.82000000        2.73714935
     8.51357426       22.06504677        0.06877736        0.61668274        2.82000000        2.73266339
     8.66371327       22.13427723        0.07077212        0.61591793        2.82000000        2.72819584
     8.81034259       22.20350769        0.07274324        0.61516496        2.82000000        2.72374641
     8.95375438       22.27273815        0.07469307        0.61442277        2.82000000        2.71931482
     9.09420418       22.34196861        0.07662366        0.61369043        2.82000000        2.71490081
     9.23191683       22.41119907        0.07853683        0.61296712        2.82000000        2.71050411
     9.36709139       22.48042954        0.08043416        0.61225211        2.82000000        2.70612446
     9.49990490       22.54966000        0.08231710        0.61154474        2.82000000        2.70176160
     9.63051563       22.61889046        0.08418692        0.61084442        2.82000000        2.69741530
     9.75906565       22.68812092        0.08604477        0.61015063        2.82000000        2.69308529
     9.88568307       22.75735138        0.08789167        0.60946289        2.82000000        2.68877134
    10.01048373       22.82658184        0.08972856        0.60878077        2.82000000        2.68447322
    10.13357288       22.89581230        0.09155630        0.60810388        2.82000000        2.68019069
    10.25504633       22.96504276        0.09337563        0.60743184        2.82000000        2.67592353
    10.37499167       23.03427322        0.09518729        0.60676434        2.82000000        2.67167151
    10.49348912       23.10350368        0.09699189        0.60610107        2.82000000        2.66743442
    10.61061241       23.17273414        0.09879004        0.60544175        2.82000000        2.66321204
    10.72642944       23.24196460        0.10058228        0.60478612        2.82000000        2.65900417
    10.84100288       23.31119506        0.10236911        0.60413394        2.82000000        2.65481059
    10.95439074       23.38042552        0.10415099        0.60348499        2.82000000        2.65063111
    11.06664682       23.44965598        0.10592834        0.60283906        2.82000000        2.64646552
    11.17782108       23.51888644        0.10770156        0.60219597        2.82000000        2.64231363
    11.28796006       23.58811690        0.10947101        0.60155553        2.82000000        2.63817526
    11.39710712       23.65734736        0.11123705        0.60091757        2.82000000        2.63405021
    11.50530280       23.72657782        0.11299998        0.60028194        2.82000000        2.62993829
    11.61258502       23.79580828        0.11476011        0.59964848        2.82000000        2.62583934
    11.71898931       23.86503874        0.11651770        0.59901707        2.82000000        2.62175317
    11.82454907       23.93426920        0.11827301        0.59838757        2.82000000        2.61767961
    11.92929560       24.00349966        0.12002630        0.59775985        2.82000000        2.61361848
    12.03325845       24.07273012        0.12177777        0.59713380        2.82000000        2.60956962
    12.13646540       24.14196058        0.12352766        0.59650932        2.82000000        2.60553287
    12.23894270       24.21119104        0.12527615        0.59588629        2.82000000        2.60150807
    12.34071514       24.28042150        0.12702343        0.59526462        2.82000000        2.59749504
    12.44180616       24.34965196        0.12876969        0.59464421        2.82000000        2.59349365
    12.54223798       24.41888242        0.13051507        0.59402498        2.82000000        2.58950374
    12.64203161       24.48811288        0.13225976        0.59340684        2.82000000        2.58552515
    12.74120703       24.55734334        0.13400388        0.59278972        2.82000000        2.58155774
    12.83978321       24.62657380        0.13574758        0.59217352        2.82000000        2.57760136
    12.93777815       24.69580426        0.13749099        0.59155819        2.82000000        2.57365588
    13.03520902       24.76503472        0.13923423        0.59094365        2.82000000        2.56972115
    13.13209215       24.83426518        0.14097743        0.59032984        2.82000000        2.56579703
    13.22844311       24.90349564        0.14272069        0.58971669        2.82000000        2.56188340
    13.32427675       24.97272610        0.14446413        0.58910414        2.82000000        2.55798012
    13.41960724       25.04195656        0.14620783        0.58849213        2.82000000        2.55408705
    13.51444813       25.11118703        0.14795189        0.58788061        2.82000000        2.55020408
    13.60881238       25.18041749        0.14969641        0.58726952        2.82000000        2.54633108
    13.70271237       25.24964795        0.15144147        0.58665881        2.82000000        2.54246791
    13.79615998       25.31887841        0.15318715        0.58604844        2.82000000        2.53861447
    13.88916657       25.38810887        0.15493353        0.58543834        2.82000000        2.53477063
    13.98174306       25.45733933        0.15668067        0.58482849        2.82000000        2.53093628
    14.07389989       25.52656979        0.15842866        0.58421883        2.82000000        2.52711130
    14.16564710       25.59580025        0.16017755        0.58360932        2.82000000        2.52329558
    14.25699434       25.66503071        0.16192740        0.58299992        2.82000000        2.51948901
    14.34795088       25.73426117        0.16367829        0.58239059        2.82000000        2.51569148
    14.43852562       25.80349163        0.16543026        0.58178130        2.82000000        2.51190289
    14.52872716       25.87272209        0.16718336        0.58117199        2.82000000        2.50812312
    14.61856375       25.94195255        0.16893766        0.58056265        2.82000000        2.50435207
    14.70804331       26.01118301        0.17069319        0.57995324        2.82000000        2.50058965
    14.79717355       26.08041347        0.17245001        0.57934371        2.82000000        2.49683575
    14.88596183       26.14964393        0.17420816        0.57873405        2.82000000        2.49309028
    14.97441528       26.21887439        0.17596768        0.57812421        2.82000000        2.48935314
    15.06254078       26.28810485        0.17772861        0.57751416        2.82000000        2.48562423
    15.15034498       26.35733531        0.17949099        0.57690389        2.82000000        2.48190346
    15.23783429       26.42656577        0.18125486        0.57629336        2.82000000        2.47819075
    15.32501490       26.49579623        0.18302025        0.57568253        2.82000000        2.47448599
    15.41189281       26.56502669        0.18478719        0.57507139        2.82000000        2.47078911
    15.49847382       26.63425715        0.18655572        0.57445991        2.82000000        2.46710001
    15.58476353       26.70348761        0.18832586        0.57384806        2.82000000        2.46341861
    15.67076736       26.77271807        0.19009765        0.57323582        2.82000000        2.45974483
    15.75649060       26.84194853        0.19187111        0.57262316        2.82000000        2.45607858
    15.84193830       26.91117899        0.19364626        0.57201006        2.82000000        2.45241979
    15.92711541       26.98040945        0.19542314        0.57139649        2.82000000        2.44876836
    16.01202672       27.04963991        0.19720176        0.57078244        2.82000000        2.44512423
    16.09667685       27.11887037        0.19898215        0.57016789        2.82000000        2.44148732
    16.18107030       27.18810083        0.20076433        0.56955280        2.82000000        2.43785755
    16.26521145       27.25733129        0.20254831        0.56893717        2.82000000        2.43423484
    16.34910452       27.32656175        0.20433412        0.56832096        2.82000000        2.43061913
    16.43275362       27.39579221        0.20612178        0.56770417        2.82000000        2.42701034
    16.51616277       27.46502267        0.20791130        0.56708676        2.82000000        2.42340840
    16.59933582       27.53425313        0.20970270        0.56646873        2.82000000        2.41981324
    16.68227656       27.60348359        0.21149599        0.56585006        2.82000000        2.41622479
    16.76498865       27.67271405        0.21329119        0.56523071        2.82000000        2.41264299
    16.84747566       27.74194452        0.21508831        0.56461069        2.82000000        2.40906776
    16.92974105       27.81117498        0.21688737        0.56398997        2.82000000        2.40549905
    17.01178819       27.88040544        0.21868838        0.56336853        2.82000000        2.40193679
    17.09362037       27.94963590        0.22049134        0.56274635        2.82000000        2.39838091
    17.17524080       28.01886636        0.22229628        0.56212343        2.82000000        2.39483136
    17.25665257       28.08809682        0.22410319        0.56149974        2.82000000        2.39128807
    17.33785871       28.15732728        0.22591209        0.56087528        2.82000000        2.38775099
    17.41886219       28.22655774        0.22772300        0.56025001        2.82000000        2.38422004
    17.49966586       28.29578820        0.22953591        0.55962394        2.82000000        2.38069519
    17.58027255       28.36501866        0.23135083        0.55899704        2.82000000        2.37717636
    17.66068499       28.43424912        0.23316777        0.55836930        2.82000000        2.37366351
    17.74090583       28.50347958        0.23498675        0.55774070        2.82000000        2.37015657
    17.82093767       28.57271004        0.23680776        0.55711124        2.82000000        2.36665549
    17.90078305       28.64194050        0.23863081        0.55648089        2.82000000        2.36316023
    17.98044445       28.71117096        0.24045590        0.55584965        2.82000000        2.35967072
    18.05992428       28.78040142        0.24228305        0.55521750        2.82000000        2.35618691
    18.13922489       28.84963188        0.24411225        0.55458442        2.82000000        2.35270876
    18.21834858       28.91886234        0.24594351        0.55395041        2.82000000        2.34923622
    18.29729761       28.98809280        0.24777684        0.55331546        2.82000000        2.34576922
    18.37607415       29.05732326        0.24961223        0.55267954        2.82000000        2.34230774
    18.45468036       29.12655372        0.25144968        0.55204265        2.82000000        2.33885171
    18.53311833       29.19578418        0.25328921        0.55140478        2.82000000        2.33540109
    18.61139011       29.26501464        0.25513082        0.55076591        2.82000000        2.33195584
    18.68949769       29.33424510        0.25697449        0.55012603        2.82000000        2.32851591
    18.76744302       29.40347556        0.25882024        0.54948514        2.82000000        2.32508125
    18.84522803       29.47270602        0.26066807        0.54884321        2.82000000        2.32165182
    18.92285457       29.54193648        0.26251798        0.54820024        2.82000000        2.31822758
    19.00032448       29.61116694        0.26436997        0.54755622        2.82000000        2.31480849
    19.07763954       29.68039740        0.26622403        0.54691113        2.82000000        2.31139449
    19.15480150       29.74962786        0.26808017        0.54626497        2.82000000        2.30798556
    19.23181207       29.81885832        0.26993839        0.54561772        2.82000000        2.30458165
    19.30867294       29.88808878        0.27179869        0.54496937        2.82000000        2.30118272
    19.38538572       29.95731924        0.27366106        0.54431992        2.82000000        2.29778873
    19.46195204       30.02654970        0.27552550        0.54366936        2.82000000        2.29439964
    19.53837346       30.09578016        0.27739202        0.54301766        2.82000000        2.29101542
    19.61465151       30.16501062        0.27926061        0.54236483        2.82000000        2.28763602
    19.69078771       30.23424108        0.28113127        0.54171085        2.82000000        2.28426141
    19.76678353       30.30347155        0.28300400        0.54105571        2.82000000        2.28089156
    19.84264041       30.37270201        0.28487879        0.54039941        2.82000000        2.27752642
    19.91835978       30.44193247        0.28675564        0.53974193        2.82000000        2.27416597
    19.99394301       30.51116293        0.28863456        0.53908326        2.82000000        2.27081016
    20.06939147       30.58039339        0.29051552        0.53842340        2.82000000        2.26745897
    20.14470649       30.64962385        0.29239854        0.53776234        2.82000000        2.26411235
    20.21988937       30.71885431        0.29428361        0.53710006        2.82000000        2.26077029
    20.29494140       30.78808477        0.29617073        0.53643656        2.82000000        2.25743273
    20.36986384       30.85731523        0.29805989        0.53577183        2.82000000        2.25409966
    20.44465790       30.92654569        0.29995108        0.53510585        2.82000000        2.25077104
    20.51932480       30.99577615        0.30184431        0.53443863        2.82000000        2.24744683
    20.59386572       31.06500661        0.30373957        0.53377014        2.82000000        2.24412702
    20.66828182       31.13423707        0.30563685        0.53310039        2.82000000        2.24081156
    20.74257425       31.20346753        0.30753615        0.53242937        2.82000000        2.23750043
    20.81674410       31.27269799        0.30943747        0.53175705        2.82000000        2.23419360
    20.89079250       31.34192845        0.31134080        0.53108345        2.82000000        2.23089104
    20.96472051       31.41115891        0.31324613        0.53040854        2.82000000        2.22759273
    21.03852917       31.48038937        0.31515346        0.52973233        2.82000000        2.22429862
    21.11221954       31.54961983        0.31706279        0.52905479        2.82000000        2.22100871
    21.18579261       31.61885029        0.31897411        0.52837593        2.82000000        2.21772295
    21.25924941       31.68808075        0.32088741        0.52769573        2.82000000        2.21444133
    21.33259089       31.75731121        0.32280268        0.52701419        2.82000000        2.21116381
    21.40581803       31.82654167        0.32471993        0.52633130        2.82000000        2.20789037
    21.47893177       31.89577213        0.32663915        0.52564705        2.82000000        2.20462099
    21.55193303       31.96500259        0.32856032        0.52496143        2.82000000        2.20135564
    21.62482272       32.03423305        0.33048345        0.52427443        2.82000000        2.19809430
    21.69760174       32.10346351        0.33240852        0.52358605        2.82000000        2.19483693
    21.77027098       32.17269397        0.33433554        0.52289628        2.82000000        2.19158353
    21.84283127       32.24192443        0.33626448        0.52220512        2.82000000        2.18833405
    21.91528348       32.31115489        0.33819536        0.52151254        2.82000000        2.18508849
    21.98762844       32.38038535        0.34012815        0.52081855        2.82000000        2.18184682
    22.05986696       32.44961581        0.34206286        0.52012314        2.82000000        2.17860901
    22.13199985       32.51884627        0.34399947        0.51942629        2.82000000        2.17537504
    22.20402789       32.58807673        0.34593798        0.51872801        2.82000000        2.17214489
    22.27595187       32.65730719        0.34787839        0.51802828        2.82000000        2.16891855
    22.34777253       32.72653765        0.34982068        0.51732710        2.82000000        2.16569598
    22.41949064       32.79576811        0.35176484        0.51662446        2.82000000        2.16247717
    22.49110691       32.86499857        0.35371087        0.51592036        2.82000000        2.15926209
    22.56262210       32.93422904        0.35565877        0.51521477        2.82000000        2.15605073
    22.63403688       33.00345950        0.35760852        0.51450770        2.82000000        2.15284307
    22.70535198       33.07268996        0.35956012        0.51379915        2.82000000        2.14963909
    22.77656806       33.14192042        0.36151355        0.51308909        2.82000000        2.14643876
    22.84768582       33.21115088        0.36346882        0.51237753        2.82000000        2.14324207
