#  Theta paroi en deg Angle Choc en deg       Kp           Inverse Mach       Mach amont       Mach aval
     0.00000000       19.60723164        0.00000000        0.66442953        2.98000000
     1.60960937       19.60934343        0.00440792        0.66239343        2.98000000        2.97983937
     1.94362372       19.61229819        0.00603873        0.66164858        2.98000000        2.97961466
     2.30219071       19.61778187        0.00799398        0.66076139        2.98000000        2.97919777
     2.68872636       19.62748043        0.01032071        0.65971378        2.98000000        2.97846089
     3.08808991       19.64307981        0.01294711        0.65854161        2.98000000        2.97727685
     3.49146086       19.66626597        0.01581597        0.65727344        2.98000000        2.97551961
     3.89566975       19.69872486        0.01889808        0.65592483        2.98000000        2.97306493
     4.30049774       19.74214243        0.02218455        0.65450206        2.98000000        2.96979112
     4.70708055       19.79820462        0.02567982        0.65300563        2.98000000        2.96557998
     5.11713441       19.86859739        0.02939720        0.65143234        2.98000000        2.96031772
     5.46093645       19.93899015        0.03265980        0.65006647        2.98000000        2.95508321
     5.76176527       20.00938292        0.03562212        0.64883800        2.98000000        2.94987595
     6.03218404       20.07977569        0.03836974        0.64770816        2.98000000        2.94469546
     6.27980898       20.15016846        0.04095561        0.64665303        2.98000000        2.93954128
     6.50963438       20.22056123        0.04341502        0.64565665        2.98000000        2.93441295
     6.72512676       20.29095400        0.04577276        0.64470781        2.98000000        2.92931001
     6.92879835       20.36134676        0.04804701        0.64379830        2.98000000        2.92423204
     7.12253259       20.43173953        0.05025152        0.64292188        2.98000000        2.91917861
     7.30778085       20.50213230        0.05239697        0.64207374        2.98000000        2.91414930
     7.48568698       20.57252507        0.05449184        0.64125003        2.98000000        2.90914369
     7.65716987       20.64291784        0.05654297        0.64044765        2.98000000        2.90416139
     7.82297961       20.71331061        0.05855597        0.63966404        2.98000000        2.89920201
     7.98373711       20.78370337        0.06053551        0.63889709        2.98000000        2.89426515
     8.13996268       20.85409614        0.06248552        0.63814500        2.98000000        2.88935046
     8.29209690       20.92448891        0.06440933        0.63740625        2.98000000        2.88445756
     8.44051644       20.99488168        0.06630980        0.63667955        2.98000000        2.87958609
     8.58554603       21.06527445        0.06818939        0.63596375        2.98000000        2.87473569
     8.72746777       21.13566722        0.07005025        0.63525786        2.98000000        2.86990603
     8.86652838       21.20605998        0.07189427        0.63456103        2.98000000        2.86509677
     9.00294498       21.27645275        0.07372309        0.63387248        2.98000000        2.86030758
     9.13690971       21.34684552        0.07553818        0.63319153        2.98000000        2.85553814
     9.26859356       21.41723829        0.07734085        0.63251759        2.98000000        2.85078812
     9.39814929       21.48763106        0.07913226        0.63185009        2.98000000        2.84605722
     9.52571409       21.55802383        0.08091346        0.63118856        2.98000000        2.84134514
     9.65141160       21.62841659        0.08268538        0.63053255        2.98000000        2.83665158
     9.77535372       21.69880936        0.08444889        0.62988165        2.98000000        2.83197625
     9.89764200       21.76920213        0.08620475        0.62923551        2.98000000        2.82731886
    10.01836898       21.83959490        0.08795366        0.62859378        2.98000000        2.82267914
    10.13761919       21.90998767        0.08969627        0.62795616        2.98000000        2.81805681
    10.25547009       21.98038044        0.09143315        0.62732236        2.98000000        2.81345161
    10.37199287       22.05077320        0.09316485        0.62669214        2.98000000        2.80886326
    10.48725305       22.12116597        0.09489186        0.62606523        2.98000000        2.80429152
    10.60131117       22.19155874        0.09661463        0.62544144        2.98000000        2.79973614
    10.71422322       22.26195151        0.09833358        0.62482053        2.98000000        2.79519686
    10.82604113       22.33234428        0.10004910        0.62420234        2.98000000        2.79067345
    10.93681313       22.40273705        0.10176155        0.62358667        2.98000000        2.78616566
    11.04658417       22.47312981        0.10347125        0.62297337        2.98000000        2.78167328
    11.15539610       22.54352258        0.10517851        0.62236226        2.98000000        2.77719606
    11.26328808       22.61391535        0.10688363        0.62175322        2.98000000        2.77273379
    11.37029670       22.68430812        0.10858687        0.62114609        2.98000000        2.76828624
    11.47645630       22.75470089        0.11028848        0.62054076        2.98000000        2.76385321
    11.58179908       22.82509366        0.11198869        0.61993710        2.98000000        2.75943448
    11.68635530       22.89548643        0.11368772        0.61933499        2.98000000        2.75502985
    11.79015347       22.96587919        0.11538577        0.61873433        2.98000000        2.75063912
    11.89322044       23.03627196        0.11708304        0.61813502        2.98000000        2.74626208
    11.99558155       23.10666473        0.11877970        0.61753695        2.98000000        2.74189855
    12.09726075       23.17705750        0.12047593        0.61694004        2.98000000        2.73754833
    12.19828066       23.24745027        0.12217188        0.61634420        2.98000000        2.73321124
    12.29866274       23.31784304        0.12386770        0.61574935        2.98000000        2.72888709
    12.39842730       23.38823580        0.12556353        0.61515541        2.98000000        2.72457571
    12.49759363       23.45862857        0.12725950        0.61456231        2.98000000        2.72027692
    12.59618005       23.52902134        0.12895574        0.61396996        2.98000000        2.71599054
    12.69420396       23.59941411        0.13065236        0.61337831        2.98000000        2.71171641
    12.79168194       23.66980688        0.13234948        0.61278730        2.98000000        2.70745436
    12.88862977       23.74019965        0.13404720        0.61219685        2.98000000        2.70320423
    12.98506249       23.81059241        0.13574561        0.61160691        2.98000000        2.69896586
    13.08099443       23.88098518        0.13744482        0.61101742        2.98000000        2.69473909
    13.17643932       23.95137795        0.13914492        0.61042833        2.98000000        2.69052377
    13.27141025       24.02177072        0.14084598        0.60983958        2.98000000        2.68631975
    13.36591972       24.09216349        0.14254808        0.60925113        2.98000000        2.68212688
    13.45997972       24.16255626        0.14425130        0.60866293        2.98000000        2.67794501
    13.55360172       24.23294902        0.14595572        0.60807493        2.98000000        2.67377401
    13.64679671       24.30334179        0.14766139        0.60748709        2.98000000        2.66961372
    13.73957521       24.37373456        0.14936839        0.60689936        2.98000000        2.66546403
    13.83194736       24.44412733        0.15107678        0.60631171        2.98000000        2.66132478
    13.92392286       24.51452010        0.15278661        0.60572409        2.98000000        2.65719585
    14.01551103       24.58491287        0.15449793        0.60513646        2.98000000        2.65307711
    14.10672084       24.65530563        0.15621081        0.60454879        2.98000000        2.64896844
    14.19756089       24.72569840        0.15792528        0.60396105        2.98000000        2.64486970
    14.28803950       24.79609117        0.15964140        0.60337319        2.98000000        2.64078077
    14.37816465       24.86648394        0.16135921        0.60278518        2.98000000        2.63670154
    14.46794402       24.93687671        0.16307876        0.60219700        2.98000000        2.63263189
    14.55738503       25.00726948        0.16480008        0.60160861        2.98000000        2.62857170
    14.64649485       25.07766224        0.16652321        0.60101999        2.98000000        2.62452085
    14.73528035       25.14805501        0.16824819        0.60043109        2.98000000        2.62047924
    14.82374820       25.21844778        0.16997506        0.59984189        2.98000000        2.61644675
    14.91190481       25.28884055        0.17170384        0.59925238        2.98000000        2.61242329
    14.99975642       25.35923332        0.17343456        0.59866251        2.98000000        2.60840873
    15.08730900       25.42962609        0.17516727        0.59807226        2.98000000        2.60440298
    15.17456838       25.50001885        0.17690198        0.59748161        2.98000000        2.60040594
    15.26154014       25.57041162        0.17863872        0.59689054        2.98000000        2.59641751
    15.34822974       25.64080439        0.18037751        0.59629901        2.98000000        2.59243758
    15.43464241       25.71119716        0.18211839        0.59570702        2.98000000        2.58846607
    15.52078326       25.78158993        0.18386137        0.59511452        2.98000000        2.58450287
    15.60665721       25.85198270        0.18560648        0.59452151        2.98000000        2.58054790
    15.69226905       25.92237546        0.18735373        0.59392795        2.98000000        2.57660106
    15.77762340       25.99276823        0.18910315        0.59333384        2.98000000        2.57266226
    15.86272476       26.06316100        0.19085475        0.59273915        2.98000000        2.56873142
    15.94757748       26.13355377        0.19260855        0.59214385        2.98000000        2.56480844
    16.03218580       26.20394654        0.19436457        0.59154793        2.98000000        2.56089325
    16.11655382       26.27433931        0.19612283        0.59095138        2.98000000        2.55698576
    16.20068553       26.34473207        0.19788332        0.59035417        2.98000000        2.55308589
    16.28458480       26.41512484        0.19964608        0.58975628        2.98000000        2.54919356
    16.36825539       26.48551761        0.20141112        0.58915770        2.98000000        2.54530868
    16.45170096       26.55591038        0.20317844        0.58855840        2.98000000        2.54143119
    16.53492507       26.62630315        0.20494806        0.58795839        2.98000000        2.53756100
    16.61793116       26.69669592        0.20671998        0.58735762        2.98000000        2.53369804
    16.70072262       26.76708868        0.20849423        0.58675610        2.98000000        2.52984223
    16.78330270       26.83748145        0.21027080        0.58615380        2.98000000        2.52599351
    16.86567459       26.90787422        0.21204970        0.58555071        2.98000000        2.52215180
    16.94784140       26.97826699        0.21383096        0.58494681        2.98000000        2.51831704
    17.02980614       27.04865976        0.21561456        0.58434210        2.98000000        2.51448915
    17.11157176       27.11905253        0.21740052        0.58373654        2.98000000        2.51066806
    17.19314112       27.18944529        0.21918885        0.58313014        2.98000000        2.50685371
    17.27451700       27.25983806        0.22097955        0.58252287        2.98000000        2.50304604
    17.35570215       27.33023083        0.22277262        0.58191472        2.98000000        2.49924498
    17.43669919       27.40062360        0.22456808        0.58130568        2.98000000        2.49545047
    17.51751074       27.47101637        0.22636592        0.58069574        2.98000000        2.49166245
    17.59813930       27.54140914        0.22816616        0.58008488        2.98000000        2.48788085
    17.67858734       27.61180190        0.22996878        0.57947308        2.98000000        2.48410561
    17.75885726       27.68219467        0.23177380        0.57886035        2.98000000        2.48033669
    17.83895141       27.75258744        0.23358122        0.57824666        2.98000000        2.47657401
    17.91887208       27.82298021        0.23539105        0.57763200        2.98000000        2.47281753
    17.99862150       27.89337298        0.23720327        0.57701636        2.98000000        2.46906718
    18.07820185       27.96376575        0.23901790        0.57639972        2.98000000        2.46532292
    18.15761526       28.03415852        0.24083494        0.57578209        2.98000000        2.46158469
    18.23686383       28.10455128        0.24265438        0.57516344        2.98000000        2.45785243
    18.31594957       28.17494405        0.24447623        0.57454376        2.98000000        2.45412610
    18.39487449       28.24533682        0.24630049        0.57392305        2.98000000        2.45040564
    18.47364052       28.31572959        0.24812715        0.57330128        2.98000000        2.44669100
    18.55224957       28.38612236        0.24995622        0.57267846        2.98000000        2.44298214
    18.63070349       28.45651513        0.25178770        0.57205457        2.98000000        2.43927900
    18.70900410       28.52690789        0.25362159        0.57142960        2.98000000        2.43558154
    18.78715318       28.59730066        0.25545787        0.57080353        2.98000000        2.43188971
    18.86515247       28.66769343        0.25729656        0.57017637        2.98000000        2.42820346
    18.94300366       28.73808620        0.25913765        0.56954810        2.98000000        2.42452276
    19.02070843       28.80847897        0.26098114        0.56891870        2.98000000        2.42084754
    19.09826840       28.87887174        0.26282702        0.56828817        2.98000000        2.41717778
    19.17568517       28.94926450        0.26467530        0.56765650        2.98000000        2.41351343
    19.25296029       29.01965727        0.26652597        0.56702369        2.98000000        2.40985444
    19.33009530       29.09005004        0.26837902        0.56638971        2.98000000        2.40620077
    19.40709170       29.16044281        0.27023446        0.56575456        2.98000000        2.40255239
    19.48395095       29.23083558        0.27209228        0.56511824        2.98000000        2.39890925
    19.56067449       29.30122835        0.27395248        0.56448072        2.98000000        2.39527132
    19.63726372       29.37162111        0.27581505        0.56384201        2.98000000        2.39163855
    19.71372002       29.44201388        0.27768000        0.56320210        2.98000000        2.38801090
    19.79004475       29.51240665        0.27954730        0.56256096        2.98000000        2.38438834
    19.86623923       29.58279942        0.28141697        0.56191861        2.98000000        2.38077083
    19.94230475       29.65319219        0.28328899        0.56127502        2.98000000        2.37715834
    20.01824259       29.72358496        0.28516337        0.56063020        2.98000000        2.37355083
    20.09405399       29.79397772        0.28704009        0.55998412        2.98000000        2.36994826
    20.16974019       29.86437049        0.28891915        0.55933678        2.98000000        2.36635060
    20.24530237       29.93476326        0.29080055        0.55868818        2.98000000        2.36275781
    20.32074172       30.00515603        0.29268428        0.55803830        2.98000000        2.35916987
    20.39605938       30.07554880        0.29457034        0.55738714        2.98000000        2.35558673
    20.47125649       30.14594157        0.29645871        0.55673469        2.98000000        2.35200838
    20.54633415       30.21633433        0.29834940        0.55608094        2.98000000        2.34843476
    20.62129347       30.28672710        0.30024240        0.55542588        2.98000000        2.34486586
    20.69613550       30.35711987        0.30213770        0.55476951        2.98000000        2.34130164
    20.77086130       30.42751264        0.30403529        0.55411181        2.98000000        2.33774207
    20.84547188       30.49790541        0.30593517        0.55345278        2.98000000        2.33418713
    20.91996827       30.56829818        0.30783734        0.55279242        2.98000000        2.33063677
    20.99435146       30.63869094        0.30974178        0.55213070        2.98000000        2.32709098
    21.06862241       30.70908371        0.31164849        0.55146763        2.98000000        2.32354973
    21.14278208       30.77947648        0.31355746        0.55080320        2.98000000        2.32001298
    21.21683142       30.84986925        0.31546869        0.55013739        2.98000000        2.31648071
    21.29077134       30.92026202        0.31738217        0.54947021        2.98000000        2.31295290
    21.36460273       30.99065479        0.31929788        0.54880165        2.98000000        2.30942951
    21.43832651       31.06104755        0.32121583        0.54813169        2.98000000        2.30591052
    21.51194354       31.13144032        0.32313601        0.54746033        2.98000000        2.30239591
    21.58545466       31.20183309        0.32505841        0.54678756        2.98000000        2.29888564
    21.65886073       31.27222586        0.32698301        0.54611338        2.98000000        2.29537970
    21.73216257       31.34261863        0.32890982        0.54543778        2.98000000        2.29187806
    21.80536099       31.41301140        0.33083883        0.54476074        2.98000000        2.28838069
    21.87845680       31.48340416        0.33277002        0.54408227        2.98000000        2.28488758
    21.95145077       31.55379693        0.33470339        0.54340235        2.98000000        2.28139869
    22.02434367       31.62418970        0.33663894        0.54272099        2.98000000        2.27791401
    22.09713627       31.69458247        0.33857664        0.54203816        2.98000000        2.27443350
    22.16982930       31.76497524        0.34051651        0.54135387        2.98000000        2.27095716
    22.24242350       31.83536801        0.34245852        0.54066810        2.98000000        2.26748496
    22.31491958       31.90576077        0.34440267        0.53998086        2.98000000        2.26401687
    22.38731826       31.97615354        0.34634894        0.53929213        2.98000000        2.26055288
    22.45962022       32.04654631        0.34829734        0.53860190        2.98000000        2.25709296
    22.53182615       32.11693908        0.35024786        0.53791017        2.98000000        2.25363710
    22.60393672       32.18733185        0.35220047        0.53721694        2.98000000        2.25018526
    22.67595258       32.25772462        0.35415518        0.53652219        2.98000000        2.24673745
