#  Theta paroi en deg Angle Choc en deg       Kp           Inverse Mach       Mach amont       Mach aval
     0.00000000       53.13010235        0.00000000        0.20000000        1.25000000
     2.15014972       53.13120845        0.01061528        0.19441017        1.25000000        1.24997466
     2.45131665       53.13275608        0.01333775        0.19297107        1.25000000        1.24993921
     2.82299432       53.13562829        0.01703424        0.19101345        1.25000000        1.24987343
     3.25334609       53.14070814        0.02175385        0.18850784        1.25000000        1.24975709
     3.71362113       53.14887869        0.02729510        0.18555707        1.25000000        1.24957001
     4.18489662       53.16102300        0.03346961        0.18225752        1.25000000        1.24929203
     4.65762109       53.17802412        0.04014780        0.17867484        1.25000000        1.24890305
     5.12752068       53.20076511        0.04724666        0.17485027        1.25000000        1.24838307
     5.59295556       53.23012902        0.05471371        0.17080894        1.25000000        1.24771221
     6.05356092       53.26699892        0.06251605        0.16656560        1.25000000        1.24687071
     6.43174481       53.30386882        0.06922085        0.16290203        1.25000000        1.24603019
     6.75609199       53.34073871        0.07518107        0.15963177        1.25000000        1.24519062
     7.04214553       53.37760861        0.08059581        0.15664958        1.25000000        1.24435201
     7.29937974       53.41447851        0.08559002        0.15388938        1.25000000        1.24351436
     7.53403388       53.45134841        0.09024801        0.15130658        1.25000000        1.24267767
     7.75045361       53.48821830        0.09462971        0.14886947        1.25000000        1.24184192
     7.95179752       53.52508820        0.09877947        0.14655456        1.25000000        1.24100713
     8.14043964       53.56195810        0.10273116        0.14434392        1.25000000        1.24017330
     8.31821333       53.59882800        0.10651131        0.14222350        1.25000000        1.23934041
     8.48656646       53.63569790        0.11014115        0.14018208        1.25000000        1.23850846
     8.64666417       53.67256779        0.11363797        0.13821047        1.25000000        1.23767746
     8.79945911       53.70943769        0.11701603        0.13630113        1.25000000        1.23684741
     8.94574115       53.74630759        0.12028731        0.13444772        1.25000000        1.23601830
     9.08617294       53.78317749        0.12346193        0.13264486        1.25000000        1.23519012
     9.22131649       53.82004738        0.12654857        0.13088796        1.25000000        1.23436289
     9.35165281       53.85691728        0.12955468        0.12917306        1.25000000        1.23353659
     9.47759707       53.89378718        0.13248678        0.12749672        1.25000000        1.23271123
     9.59951034       53.93065708        0.13535055        0.12585591        1.25000000        1.23188680
     9.71770876       53.96752697        0.13815103        0.12424797        1.25000000        1.23106331
     9.83247078       54.00439687        0.14089266        0.12267055        1.25000000        1.23024074
     9.94404315       54.04126677        0.14357940        0.12112154        1.25000000        1.22941911
    10.05264551       54.07813667        0.14621481        0.11959905        1.25000000        1.22859840
    10.15847441       54.11500656        0.14880208        0.11810140        1.25000000        1.22777861
    10.26170643       54.15187646        0.15134410        0.11662705        1.25000000        1.22695976
    10.36250089       54.18874636        0.15384349        0.11517460        1.25000000        1.22614182
    10.46100205       54.22561626        0.15630262        0.11374281        1.25000000        1.22532480
    10.55734097       54.26248616        0.15872368        0.11233052        1.25000000        1.22450871
    10.65163716       54.29935605        0.16110864        0.11093666        1.25000000        1.22369353
    10.74399987       54.33622595        0.16345935        0.10956027        1.25000000        1.22287927
    10.83452929       54.37309585        0.16577747        0.10820047        1.25000000        1.22206592
    10.92331750       54.40996575        0.16806457        0.10685642        1.25000000        1.22125349
    11.01044940       54.44683564        0.17032207        0.10552735        1.25000000        1.22044197
    11.09600341       54.48370554        0.17255131        0.10421258        1.25000000        1.21963136
    11.18005214       54.52057544        0.17475354        0.10291143        1.25000000        1.21882166
    11.26266296       54.55744534        0.17692989        0.10162330        1.25000000        1.21801287
    11.34389851       54.59431523        0.17908145        0.10034762        1.25000000        1.21720498
    11.42381711       54.63118513        0.18120921        0.09908385        1.25000000        1.21639800
    11.50247320       54.66805503        0.18331412        0.09783149        1.25000000        1.21559192
    11.57991766       54.70492493        0.18539706        0.09659009        1.25000000        1.21478674
    11.65619813       54.74179482        0.18745886        0.09535919        1.25000000        1.21398246
    11.73135925       54.77866472        0.18950029        0.09413838        1.25000000        1.21317909
    11.80544297       54.81553462        0.19152208        0.09292728        1.25000000        1.21237661
    11.87848872       54.85240452        0.19352493        0.09172552        1.25000000        1.21157502
    11.95053365       54.88927441        0.19550949        0.09053276        1.25000000        1.21077433
    12.02161273       54.92614431        0.19747637        0.08934866        1.25000000        1.20997453
    12.09175904       54.96301421        0.19942615        0.08817292        1.25000000        1.20917563
    12.16100378       54.99988411        0.20135939        0.08700524        1.25000000        1.20837762
    12.22937654       55.03675401        0.20327660        0.08584535        1.25000000        1.20758049
    12.29690527       55.07362390        0.20517830        0.08469298        1.25000000        1.20678426
    12.36361652       55.11049380        0.20706494        0.08354788        1.25000000        1.20598891
    12.42953548       55.14736370        0.20893698        0.08240982        1.25000000        1.20519444
    12.49468609       55.18423360        0.21079485        0.08127855        1.25000000        1.20440086
    12.55909107       55.22110349        0.21263895        0.08015388        1.25000000        1.20360816
    12.62277212       55.25797339        0.21446967        0.07903559        1.25000000        1.20281635
    12.68574985       55.29484329        0.21628737        0.07792349        1.25000000        1.20202541
    12.74804393       55.33171319        0.21809243        0.07681738        1.25000000        1.20123535
    12.80967311       55.36858308        0.21988516        0.07571709        1.25000000        1.20044617
    12.87065535       55.40545298        0.22166590        0.07462245        1.25000000        1.19965787
    12.93100774       55.44232288        0.22343496        0.07353328        1.25000000        1.19887044
    12.99074668       55.47919278        0.22519263        0.07244944        1.25000000        1.19808389
    13.04988783       55.51606267        0.22693920        0.07137077        1.25000000        1.19729820
    13.10844621       55.55293257        0.22867493        0.07029713        1.25000000        1.19651339
    13.16643619       55.58980247        0.23040010        0.06922838        1.25000000        1.19572945
    13.22387158       55.62667237        0.23211495        0.06816437        1.25000000        1.19494638
    13.28076560       55.66354227        0.23381972        0.06710499        1.25000000        1.19416417
    13.33713096       55.70041216        0.23551465        0.06605012        1.25000000        1.19338283
    13.39297987       55.73728206        0.23719995        0.06499962        1.25000000        1.19260235
    13.44832406       55.77415196        0.23887586        0.06395340        1.25000000        1.19182274
    13.50317480       55.81102186        0.24054256        0.06291133        1.25000000        1.19104400
    13.55754296       55.84789175        0.24220026        0.06187331        1.25000000        1.19026611
    13.61143899       55.88476165        0.24384915        0.06083924        1.25000000        1.18948908
    13.66487295       55.92163155        0.24548943        0.05980903        1.25000000        1.18871292
    13.71785454       55.95850145        0.24712125        0.05878256        1.25000000        1.18793761
    13.77039311       55.99537134        0.24874481        0.05775976        1.25000000        1.18716315
    13.82249770       56.03224124        0.25036027        0.05674054        1.25000000        1.18638956
    13.87417699       56.06911114        0.25196777        0.05572480        1.25000000        1.18561681
    13.92543942       56.10598104        0.25356750        0.05471247        1.25000000        1.18484493
    13.97629308       56.14285093        0.25515958        0.05370347        1.25000000        1.18407389
    14.02674582       56.17972083        0.25674417        0.05269771        1.25000000        1.18330370
    14.07680524       56.21659073        0.25832141        0.05169512        1.25000000        1.18253437
    14.12647864       56.25346063        0.25989144        0.05069564        1.25000000        1.18176588
    14.17577317       56.29033053        0.26145438        0.04969918        1.25000000        1.18099824
    14.22469564       56.32720042        0.26301036        0.04870569        1.25000000        1.18023145
    14.27325273       56.36407032        0.26455952        0.04771509        1.25000000        1.17946550
    14.32145087       56.40094022        0.26610196        0.04672733        1.25000000        1.17870040
    14.36929629       56.43781012        0.26763781        0.04574233        1.25000000        1.17793614
    14.41679505       56.47468001        0.26916717        0.04476004        1.25000000        1.17717273
    14.46395301       56.51154991        0.27069016        0.04378040        1.25000000        1.17641015
    14.51077585       56.54841981        0.27220689        0.04280336        1.25000000        1.17564842
    14.55726907       56.58528971        0.27371745        0.04182885        1.25000000        1.17488752
    14.60343806       56.62215960        0.27522194        0.04085683        1.25000000        1.17412747
    14.64928798       56.65902950        0.27672048        0.03988725        1.25000000        1.17336825
    14.69482389       56.69589940        0.27821313        0.03892004        1.25000000        1.17260987
    14.74005070       56.73276930        0.27970001        0.03795517        1.25000000        1.17185232
    14.78497315       56.76963919        0.28118120        0.03699258        1.25000000        1.17109560
    14.82959587       56.80650909        0.28265679        0.03603224        1.25000000        1.17033972
    14.87392338       56.84337899        0.28412686        0.03507409        1.25000000        1.16958467
    14.91796003       56.88024889        0.28559149        0.03411809        1.25000000        1.16883046
    14.96171008       56.91711879        0.28705076        0.03316419        1.25000000        1.16807707
    15.00517768       56.95398868        0.28850476        0.03221236        1.25000000        1.16732451
    15.04836686       56.99085858        0.28995355        0.03126256        1.25000000        1.16657278
    15.09128152       57.02772848        0.29139721        0.03031474        1.25000000        1.16582188
    15.13392550       57.06459838        0.29283582        0.02936887        1.25000000        1.16507181
    15.17630251       57.10146827        0.29426944        0.02842491        1.25000000        1.16432256
    15.21841616       57.13833817        0.29569814        0.02748282        1.25000000        1.16357413
    15.26027000       57.17520807        0.29712198        0.02654258        1.25000000        1.16282653
    15.30186746       57.21207797        0.29854104        0.02560413        1.25000000        1.16207975
    15.34321189       57.24894786        0.29995538        0.02466745        1.25000000        1.16133379
    15.38430655       57.28581776        0.30136505        0.02373251        1.25000000        1.16058866
    15.42515465       57.32268766        0.30277013        0.02279927        1.25000000        1.15984434
    15.46575927       57.35955756        0.30417065        0.02186770        1.25000000        1.15910084
    15.50612347       57.39642745        0.30556670        0.02093778        1.25000000        1.15835816
    15.54625018       57.43329735        0.30695831        0.02000947        1.25000000        1.15761630
    15.58614231       57.47016725        0.30834555        0.01908274        1.25000000        1.15687525
    15.62580268       57.50703715        0.30972846        0.01815756        1.25000000        1.15613502
    15.66523404       57.54390705        0.31110711        0.01723391        1.25000000        1.15539561
    15.70443906       57.58077694        0.31248154        0.01631176        1.25000000        1.15465700
    15.74342038       57.61764684        0.31385179        0.01539108        1.25000000        1.15391921
    15.78218056       57.65451674        0.31521793        0.01447185        1.25000000        1.15318224
    15.82072211       57.69138664        0.31657999        0.01355404        1.25000000        1.15244607
    15.85904747       57.72825653        0.31793803        0.01263762        1.25000000        1.15171071
    15.89715904       57.76512643        0.31929208        0.01172258        1.25000000        1.15097617
    15.93505916       57.80199633        0.32064220        0.01080888        1.25000000        1.15024243
    15.97275011       57.83886623        0.32198842        0.00989651        1.25000000        1.14950950
    16.01023413       57.87573612        0.32333080        0.00898544        1.25000000        1.14877738
    16.04751340       57.91260602        0.32466936        0.00807565        1.25000000        1.14804606
    16.08459007       57.94947592        0.32600415        0.00716712        1.25000000        1.14731555
    16.12146622       57.98634582        0.32733521        0.00625983        1.25000000        1.14658584
    16.15814391       58.02321571        0.32866258        0.00535375        1.25000000        1.14585694
    16.19462514       58.06008561        0.32998630        0.00444887        1.25000000        1.14512884
    16.23091185       58.09695551        0.33130640        0.00354517        1.25000000        1.14440154
    16.26700600       58.13382541        0.33262293        0.00264262        1.25000000        1.14367505
    16.30290943       58.17069531        0.33393591        0.00174121        1.25000000        1.14294935
    16.33862400       58.20756520        0.33524538        0.00084092        1.25000000        1.14222446
    16.37415151       58.24443510        0.33655137       -0.00005827        1.25000000        1.14150036
    16.40949372       58.28130500        0.33785393       -0.00095638        1.25000000        1.14077707
    16.44465236       58.31817490        0.33915307       -0.00185342        1.25000000        1.14005457
    16.47962913       58.35504479        0.34044884       -0.00274941        1.25000000        1.13933286
    16.51442567       58.39191469        0.34174127       -0.00364437        1.25000000        1.13861196
    16.54904362       58.42878459        0.34303038       -0.00453832        1.25000000        1.13789185
    16.58348457       58.46565449        0.34431621       -0.00543126        1.25000000        1.13717253
    16.61775008       58.50252438        0.34559878       -0.00632322        1.25000000        1.13645401
    16.65184168       58.53939428        0.34687813       -0.00721422        1.25000000        1.13573628
    16.68576087       58.57626418        0.34815428       -0.00810426        1.25000000        1.13501934
    16.71950912       58.61313408        0.34942726       -0.00899336        1.25000000        1.13430320
    16.75308787       58.65000397        0.35069710       -0.00988154        1.25000000        1.13358785
    16.78649855       58.68687387        0.35196382       -0.01076881        1.25000000        1.13287329
    16.81974252       58.72374377        0.35322746       -0.01165518        1.25000000        1.13215951
    16.85282117       58.76061367        0.35448803       -0.01254068        1.25000000        1.13144653
    16.88573581       58.79748357        0.35574557       -0.01342530        1.25000000        1.13073434
    16.91848776       58.83435346        0.35700009       -0.01430907        1.25000000        1.13002293
    16.95107830       58.87122336        0.35825163       -0.01519199        1.25000000        1.12931231
    16.98350870       58.90809326        0.35950020       -0.01607409        1.25000000        1.12860248
    17.01578019       58.94496316        0.36074583       -0.01695537        1.25000000        1.12789343
    17.04789398       58.98183305        0.36198854       -0.01783584        1.25000000        1.12718517
    17.07985127       59.01870295        0.36322836       -0.01871552        1.25000000        1.12647770
    17.11165322       59.05557285        0.36446530       -0.01959442        1.25000000        1.12577100
    17.14330099       59.09244275        0.36569940       -0.02047255        1.25000000        1.12506510
    17.17479571       59.12931264        0.36693066       -0.02134992        1.25000000        1.12435997
    17.20613846       59.16618254        0.36815911       -0.02222654        1.25000000        1.12365563
    17.23733036       59.20305244        0.36938477       -0.02310242        1.25000000        1.12295206
    17.26837246       59.23992234        0.37060767       -0.02397758        1.25000000        1.12224928
    17.29926581       59.27679223        0.37182781       -0.02485202        1.25000000        1.12154728
    17.33001144       59.31366213        0.37304523       -0.02572575        1.25000000        1.12084606
    17.36061036       59.35053203        0.37425994       -0.02659879        1.25000000        1.12014562
    17.39106357       59.38740193        0.37547195       -0.02747114        1.25000000        1.11944595
    17.42137204       59.42427183        0.37668129       -0.02834281        1.25000000        1.11874707
    17.45153674       59.46114172        0.37788798       -0.02921382        1.25000000        1.11804896
    17.48155859       59.49801162        0.37909203       -0.03008417        1.25000000        1.11735163
    17.51143854       59.53488152        0.38029345       -0.03095386        1.25000000        1.11665507
    17.54117749       59.57175142        0.38149228       -0.03182292        1.25000000        1.11595930
    17.57077632       59.60862131        0.38268852       -0.03269135        1.25000000        1.11526429
    17.60023594       59.64549121        0.38388219       -0.03355915        1.25000000        1.11457006
    17.62955719       59.68236111        0.38507331       -0.03442634        1.25000000        1.11387661
    17.65874093       59.71923101        0.38626189       -0.03529292        1.25000000        1.11318393
    17.68778799       59.75610090        0.38744795       -0.03615891        1.25000000        1.11249202
