#  Theta paroi en deg Angle Choc en deg       Kp           Inverse Mach       Mach amont       Mach aval
     0.00000000       23.18497011        0.00000000        0.60629921        2.54000000
     1.76925572       23.18697456        0.00548241        0.60384329        2.54000000        2.53987725
     2.13200135       23.18977914        0.00749338        0.60295022        2.54000000        2.53970553
     2.52343749       23.19498411        0.00991723        0.60187918        2.54000000        2.53938692
     2.94622314       23.20418974        0.01280832        0.60060926        2.54000000        2.53882368
     3.38305837       23.21899628        0.01607282        0.59918498        2.54000000        2.53791846
     3.82370184       23.24100399        0.01963412        0.59764260        2.54000000        2.53657457
     4.26422161       23.27181315        0.02345001        0.59600281        2.54000000        2.53469643
     4.70399968       23.31302400        0.02750344        0.59427508        2.54000000        2.53218998
     5.14395421       23.36623681        0.03179366        0.59246177        2.54000000        2.52896326
     5.58567136       23.43305184        0.03633065        0.59056079        2.54000000        2.52492704
     5.95435264       23.49986687        0.04028949        0.58891556        2.54000000        2.52090763
     6.27564634       23.56668190        0.04386484        0.58744016        2.54000000        2.51690481
     6.56339968       23.63349693        0.04716476        0.58608697        2.54000000        2.51291834
     6.82600935       23.70031196        0.05025620        0.58482651        2.54000000        2.50894798
     7.06898242       23.76712699        0.05318381        0.58363913        2.54000000        2.50499352
     7.29614195       23.83394202        0.05597905        0.58251100        2.54000000        2.50105474
     7.51025889       23.90075705        0.05866497        0.58143196        2.54000000        2.49713142
     7.71341088       23.96757208        0.06125906        0.58039433        2.54000000        2.49322334
     7.90719908       24.03438711        0.06377491        0.57939213        2.54000000        2.48933030
     8.09288554       24.10120214        0.06622330        0.57842061        2.54000000        2.48545209
     8.27148413       24.16801717        0.06861296        0.57747592        2.54000000        2.48158852
     8.44382257       24.23483220        0.07095108        0.57655490        2.54000000        2.47773938
     8.61058617       24.30164723        0.07324360        0.57565492        2.54000000        2.47390447
     8.77234910       24.36846226        0.07549557        0.57477377        2.54000000        2.47008362
     8.92959769       24.43527729        0.07771124        0.57390955        2.54000000        2.46627662
     9.08274772       24.50209231        0.07989428        0.57306064        2.54000000        2.46248330
     9.23215767       24.56890734        0.08204787        0.57222563        2.54000000        2.45870348
     9.37813898       24.63572237        0.08417477        0.57140331        2.54000000        2.45493697
     9.52096403       24.70253740        0.08627739        0.57059258        2.54000000        2.45118360
     9.66087256       24.76935243        0.08835787        0.56979251        2.54000000        2.44744319
     9.79807676       24.83616746        0.09041811        0.56900224        2.54000000        2.44371559
     9.93276541       24.90298249        0.09245979        0.56822102        2.54000000        2.44000062
    10.06510725       24.96979752        0.09448442        0.56744818        2.54000000        2.43629812
    10.19525377       25.03661255        0.09649335        0.56668310        2.54000000        2.43260792
    10.32334152       25.10342758        0.09848781        0.56592523        2.54000000        2.42892988
    10.44949409       25.17024261        0.10046892        0.56517407        2.54000000        2.42526383
    10.57382366       25.23705764        0.10243766        0.56442916        2.54000000        2.42160962
    10.69643245       25.30387267        0.10439496        0.56369010        2.54000000        2.41796710
    10.81741381       25.37068770        0.10634165        0.56295649        2.54000000        2.41433612
    10.93685334       25.43750273        0.10827850        0.56222799        2.54000000        2.41071655
    11.05482964       25.50431776        0.11020622        0.56150427        2.54000000        2.40710822
    11.17141511       25.57113279        0.11212545        0.56078503        2.54000000        2.40351101
    11.28667662       25.63794782        0.11403678        0.56007000        2.54000000        2.39992478
    11.40067602       25.70476285        0.11594077        0.55935893        2.54000000        2.39634939
    11.51347067       25.77157788        0.11783793        0.55865156        2.54000000        2.39278470
    11.62511389       25.83839291        0.11972873        0.55794769        2.54000000        2.38923059
    11.73565526       25.90520794        0.12161362        0.55724710        2.54000000        2.38568692
    11.84514106       25.97202297        0.12349299        0.55654960        2.54000000        2.38215357
    11.95361451       26.03883800        0.12536725        0.55585501        2.54000000        2.37863041
    12.06111607       26.10565303        0.12723673        0.55516315        2.54000000        2.37511732
    12.16768361       26.17246806        0.12910177        0.55447387        2.54000000        2.37161418
    12.27335272       26.23928309        0.13096269        0.55378702        2.54000000        2.36812087
    12.37815683       26.30609812        0.13281978        0.55310245        2.54000000        2.36463727
    12.48212741       26.37291315        0.13467331        0.55242003        2.54000000        2.36116327
    12.58529411       26.43972818        0.13652353        0.55173964        2.54000000        2.35769875
    12.68768489       26.50654321        0.13837070        0.55106115        2.54000000        2.35424360
    12.78932619       26.57335824        0.14021504        0.55038444        2.54000000        2.35079771
    12.89024302       26.64017327        0.14205676        0.54970942        2.54000000        2.34736098
    12.99045903       26.70698830        0.14389607        0.54903598        2.54000000        2.34393328
    13.08999665       26.77380333        0.14573315        0.54836402        2.54000000        2.34051454
    13.18887716       26.84061836        0.14756820        0.54769346        2.54000000        2.33710463
    13.28712077       26.90743339        0.14940137        0.54702419        2.54000000        2.33370345
    13.38474670       26.97424842        0.15123283        0.54635614        2.54000000        2.33031091
    13.48177321       27.04106345        0.15306274        0.54568922        2.54000000        2.32692691
    13.57821771       27.10787848        0.15489124        0.54502337        2.54000000        2.32355136
    13.67409680       27.17469351        0.15671846        0.54435850        2.54000000        2.32018415
    13.76942629       27.24150854        0.15854454        0.54369456        2.54000000        2.31682519
    13.86422129       27.30832357        0.16036959        0.54303146        2.54000000        2.31347439
    13.95849623       27.37513860        0.16219375        0.54236914        2.54000000        2.31013166
    14.05226491       27.44195363        0.16401712        0.54170755        2.54000000        2.30679691
    14.14554052       27.50876866        0.16583980        0.54104663        2.54000000        2.30347005
    14.23833570       27.57558369        0.16766190        0.54038631        2.54000000        2.30015100
    14.33066257       27.64239872        0.16948351        0.53972654        2.54000000        2.29683967
    14.42253271       27.70921375        0.17130473        0.53906727        2.54000000        2.29353597
    14.51395727       27.77602878        0.17312564        0.53840845        2.54000000        2.29023983
    14.60494694       27.84284381        0.17494633        0.53775003        2.54000000        2.28695116
    14.69551197       27.90965884        0.17676687        0.53709197        2.54000000        2.28366987
    14.78566224       27.97647387        0.17858735        0.53643421        2.54000000        2.28039590
    14.87540721       28.04328890        0.18040782        0.53577671        2.54000000        2.27712917
    14.96475603       28.11010393        0.18222837        0.53511944        2.54000000        2.27386959
    15.05371747       28.17691896        0.18404906        0.53446234        2.54000000        2.27061710
    15.14229999       28.24373399        0.18586995        0.53380539        2.54000000        2.26737161
    15.23051172       28.31054902        0.18769109        0.53314853        2.54000000        2.26413306
    15.31836055       28.37736405        0.18951256        0.53249175        2.54000000        2.26090137
    15.40585404       28.44417908        0.19133440        0.53183498        2.54000000        2.25767647
    15.49299949       28.51099411        0.19315666        0.53117822        2.54000000        2.25445830
    15.57980398       28.57780914        0.19497940        0.53052141        2.54000000        2.25124677
    15.66627432       28.64462417        0.19680266        0.52986453        2.54000000        2.24804184
    15.75241707       28.71143920        0.19862649        0.52920754        2.54000000        2.24484342
    15.83823864       28.77825423        0.20045093        0.52855042        2.54000000        2.24165145
    15.92374516       28.84506926        0.20227603        0.52789314        2.54000000        2.23846587
    16.00894257       28.91188429        0.20410182        0.52723565        2.54000000        2.23528662
    16.09383667       28.97869932        0.20592834        0.52657795        2.54000000        2.23211363
    16.17843301       29.04551435        0.20775564        0.52591999        2.54000000        2.22894683
    16.26273701       29.11232938        0.20958374        0.52526175        2.54000000        2.22578618
    16.34675389       29.17914441        0.21141267        0.52460321        2.54000000        2.22263160
    16.43048874       29.24595944        0.21324248        0.52394434        2.54000000        2.21948304
    16.51394646       29.31277447        0.21507318        0.52328512        2.54000000        2.21634044
    16.59713184       29.37958950        0.21690482        0.52262551        2.54000000        2.21320375
    16.68004949       29.44640453        0.21873741        0.52196551        2.54000000        2.21007290
    16.76270391       29.51321956        0.22057099        0.52130507        2.54000000        2.20694784
    16.84509946       29.58003459        0.22240557        0.52064419        2.54000000        2.20382852
    16.92724038       29.64684962        0.22424120        0.51998284        2.54000000        2.20071487
    17.00913077       29.71366465        0.22607788        0.51932099        2.54000000        2.19760686
    17.09077462       29.78047968        0.22791564        0.51865864        2.54000000        2.19450442
    17.17217583       29.84729471        0.22975450        0.51799574        2.54000000        2.19140751
    17.25333817       29.91410974        0.23159449        0.51733230        2.54000000        2.18831607
    17.33426532       29.98092477        0.23343561        0.51666828        2.54000000        2.18523005
    17.41496083       30.04773980        0.23527790        0.51600366        2.54000000        2.18214940
    17.49542819       30.11455483        0.23712137        0.51533844        2.54000000        2.17907407
    17.57567079       30.18136986        0.23896603        0.51467259        2.54000000        2.17600403
    17.65569190       30.24818489        0.24081190        0.51400608        2.54000000        2.17293921
    17.73549474       30.31499992        0.24265900        0.51333891        2.54000000        2.16987957
    17.81508243       30.38181495        0.24450733        0.51267106        2.54000000        2.16682506
    17.89445801       30.44862998        0.24635693        0.51200250        2.54000000        2.16377565
    17.97362444       30.51544501        0.24820779        0.51133323        2.54000000        2.16073128
    18.05258462       30.58226004        0.25005993        0.51066322        2.54000000        2.15769191
    18.13134136       30.64907507        0.25191336        0.50999247        2.54000000        2.15465750
    18.20989739       30.71589010        0.25376810        0.50932095        2.54000000        2.15162801
    18.28825542       30.78270513        0.25562415        0.50864864        2.54000000        2.14860338
    18.36641804       30.84952015        0.25748153        0.50797554        2.54000000        2.14558359
    18.44438780       30.91633518        0.25934024        0.50730163        2.54000000        2.14256858
    18.52216719       30.98315021        0.26120029        0.50662689        2.54000000        2.13955833
    18.59975865       31.04996524        0.26306170        0.50595130        2.54000000        2.13655278
    18.67716453       31.11678027        0.26492446        0.50527487        2.54000000        2.13355190
    18.75438715       31.18359530        0.26678859        0.50459756        2.54000000        2.13055565
    18.83142877       31.25041033        0.26865410        0.50391937        2.54000000        2.12756400
    18.90829160       31.31722536        0.27052098        0.50324028        2.54000000        2.12457690
    18.98497780       31.38404039        0.27238925        0.50256028        2.54000000        2.12159432
    19.06148948       31.45085542        0.27425892        0.50187935        2.54000000        2.11861622
    19.13782869       31.51767045        0.27612998        0.50119749        2.54000000        2.11564257
    19.21399746       31.58448548        0.27800245        0.50051468        2.54000000        2.11267332
    19.28999773       31.65130051        0.27987632        0.49983091        2.54000000        2.10970845
    19.36583145       31.71811554        0.28175160        0.49914616        2.54000000        2.10674792
    19.44150049       31.78493057        0.28362830        0.49846042        2.54000000        2.10379169
    19.51700670       31.85174560        0.28550642        0.49777368        2.54000000        2.10083974
    19.59235187       31.91856063        0.28738595        0.49708593        2.54000000        2.09789202
    19.66753777       31.98537566        0.28926692        0.49639716        2.54000000        2.09494851
    19.74256612       32.05219069        0.29114931        0.49570735        2.54000000        2.09200918
    19.81743862       32.11900572        0.29303313        0.49501649        2.54000000        2.08907398
    19.89215691       32.18582075        0.29491837        0.49432458        2.54000000        2.08614290
    19.96672260       32.25263578        0.29680506        0.49363159        2.54000000        2.08321590
    20.04113729       32.31945081        0.29869317        0.49293753        2.54000000        2.08029294
    20.11540253       32.38626584        0.30058272        0.49224237        2.54000000        2.07737401
    20.18951983       32.45308087        0.30247370        0.49154611        2.54000000        2.07445906
    20.26349068       32.51989590        0.30436612        0.49084873        2.54000000        2.07154808
    20.33731654       32.58671093        0.30625998        0.49015023        2.54000000        2.06864102
    20.41099883       32.65352596        0.30815527        0.48945059        2.54000000        2.06573787
    20.48453895       32.72034099        0.31005199        0.48874981        2.54000000        2.06283860
    20.55793828       32.78715602        0.31195015        0.48804787        2.54000000        2.05994317
    20.63119816       32.85397105        0.31384975        0.48734477        2.54000000        2.05705156
    20.70431991       32.92078608        0.31575078        0.48664049        2.54000000        2.05416374
    20.77730481       32.98760111        0.31765324        0.48593502        2.54000000        2.05127969
    20.85015414       33.05441614        0.31955713        0.48522835        2.54000000        2.04839939
    20.92286913       33.12123117        0.32146244        0.48452048        2.54000000        2.04552279
    20.99545100       33.18804620        0.32336919        0.48381139        2.54000000        2.04264989
    21.06790094       33.25486123        0.32527736        0.48310108        2.54000000        2.03978065
    21.14022013       33.32167626        0.32718695        0.48238953        2.54000000        2.03691505
    21.21240971       33.38849129        0.32909796        0.48167673        2.54000000        2.03405306
    21.28447081       33.45530632        0.33101039        0.48096268        2.54000000        2.03119466
    21.35640454       33.52212135        0.33292424        0.48024737        2.54000000        2.02833984
    21.42821198       33.58893638        0.33483949        0.47953078        2.54000000        2.02548855
    21.49989418       33.65575141        0.33675616        0.47881291        2.54000000        2.02264079
    21.57145221       33.72256644        0.33867423        0.47809375        2.54000000        2.01979652
    21.64288708       33.78938147        0.34059370        0.47737328        2.54000000        2.01695573
    21.71419979       33.85619650        0.34251458        0.47665151        2.54000000        2.01411839
    21.78539135       33.92301153        0.34443684        0.47592842        2.54000000        2.01128448
    21.85646271       33.98982656        0.34636050        0.47520399        2.54000000        2.00845399
    21.92741482       34.05664159        0.34828554        0.47447824        2.54000000        2.00562688
    21.99824863       34.12345662        0.35021197        0.47375113        2.54000000        2.00280313
    22.06896504       34.19027165        0.35213978        0.47302267        2.54000000        1.99998274
    22.13956497       34.25708668        0.35406896        0.47229285        2.54000000        1.99716567
    22.21004929       34.32390171        0.35599951        0.47156165        2.54000000        1.99435190
    22.28041887       34.39071674        0.35793142        0.47082908        2.54000000        1.99154143
    22.35067457       34.45753177        0.35986470        0.47009511        2.54000000        1.98873421
    22.42081722       34.52434680        0.36179933        0.46935975        2.54000000        1.98593025
    22.49084766       34.59116183        0.36373531        0.46862298        2.54000000        1.98312951
    22.56076668       34.65797686        0.36567264        0.46788480        2.54000000        1.98033198
    22.63057508       34.72479189        0.36761130        0.46714519        2.54000000        1.97753765
    22.70027364       34.79160692        0.36955130        0.46640415        2.54000000        1.97474648
    22.76986314       34.85842195        0.37149263        0.46566167        2.54000000        1.97195847
    22.83934431       34.92523698        0.37343529        0.46491775        2.54000000        1.96917359
    22.90871792       34.99205201        0.37537926        0.46417236        2.54000000        1.96639184
    22.97798467       35.05886704        0.37732454        0.46342551        2.54000000        1.96361318
    23.04714529       35.12568207        0.37927113        0.46267719        2.54000000        1.96083761
    23.11620049       35.19249710        0.38121902        0.46192739        2.54000000        1.95806510
