#  Theta paroi en deg Angle Choc en deg       Kp           Inverse Mach       Mach amont       Mach aval
     0.00000000       67.16983219        0.00000000        0.07834101        1.08500000
     1.93475147       67.17051710        0.01011608        0.07255833        1.08500000        1.08499045
     2.05132042       67.17147540        0.01123018        0.07191860        1.08500000        1.08497709
     2.23053926       67.17325390        0.01303801        0.07087930        1.08500000        1.08495229
     2.47321526       67.17639939        0.01566480        0.06936647        1.08500000        1.08490844
     2.75936278       67.18145867        0.01901875        0.06743015        1.08500000        1.08483792
     3.06937270       67.18897853        0.02295602        0.06515029        1.08500000        1.08473314
     3.39050981       67.19950577        0.02735764        0.06259280        1.08500000        1.08458650
     3.71562655       67.21358720        0.03213962        0.05980374        1.08500000        1.08439047
     4.04092085       67.23176959        0.03724461        0.05681400        1.08500000        1.08413751
     4.36442203       67.25459976        0.04263308        0.05364433        1.08500000        1.08382018
     4.63040572       67.27742993        0.04729280        0.05089166        1.08500000        1.08350317
     4.85838891       67.30026010        0.05144975        0.04842677        1.08500000        1.08318647
     5.05913281       67.32309026        0.05523371        0.04617541        1.08500000        1.08287008
     5.23925920       67.34592043        0.05872719        0.04409035        1.08500000        1.08255401
     5.40315909       67.36875060        0.06198642        0.04213942        1.08500000        1.08223825
     5.55390742       67.39158077        0.06505173        0.04029951        1.08500000        1.08192281
     5.69374893       67.41441093        0.06795314        0.03855343        1.08500000        1.08160768
     5.82437692       67.43724110        0.07071376        0.03688796        1.08500000        1.08129286
     5.94710312       67.46007127        0.07335176        0.03529267        1.08500000        1.08097836
     6.06296623       67.48290144        0.07588177        0.03375920        1.08500000        1.08066417
     6.17280405       67.50573161        0.07831573        0.03228068        1.08500000        1.08035030
     6.27730312       67.52856177        0.08066358        0.03085144        1.08500000        1.08003674
     6.37703364       67.55139194        0.08293364        0.02946670        1.08500000        1.07972349
     6.47247490       67.57422211        0.08513302        0.02812239        1.08500000        1.07941056
     6.56403397       67.59705228        0.08726779        0.02681502        1.08500000        1.07909794
     6.65205983       67.61988245        0.08934321        0.02554158        1.08500000        1.07878564
     6.73685403       67.64271261        0.09136389        0.02429944        1.08500000        1.07847364
     6.81867920       67.66554278        0.09333386        0.02308627        1.08500000        1.07816197
     6.89776555       67.68837295        0.09525668        0.02190005        1.08500000        1.07785060
     6.97431606       67.71120312        0.09713553        0.02073894        1.08500000        1.07753955
     7.04851083       67.73403328        0.09897323        0.01960132        1.08500000        1.07722881
     7.12051030       67.75686345        0.10077233        0.01848575        1.08500000        1.07691838
     7.19045818       67.77969362        0.10253512        0.01739090        1.08500000        1.07660827
     7.25848372       67.80252379        0.10426368        0.01631558        1.08500000        1.07629847
     7.32470364       67.82535396        0.10595990        0.01525871        1.08500000        1.07598898
     7.38922366       67.84818412        0.10762549        0.01421930        1.08500000        1.07567981
     7.45213999       67.87101429        0.10926203        0.01319647        1.08500000        1.07537095
     7.51354037       67.89384446        0.11087096        0.01218936        1.08500000        1.07506240
     7.57350508       67.91667463        0.11245361        0.01119724        1.08500000        1.07475417
     7.63210779       67.93950479        0.11401120        0.01021938        1.08500000        1.07444624
     7.68941628       67.96233496        0.11554487        0.00925515        1.08500000        1.07413863
     7.74549309       67.98516513        0.11705567        0.00830394        1.08500000        1.07383134
     7.80039599       68.00799530        0.11854457        0.00736520        1.08500000        1.07352435
     7.85417851       68.03082547        0.12001248        0.00643840        1.08500000        1.07321768
     7.90689038       68.05365563        0.12146024        0.00552306        1.08500000        1.07291132
     7.95857784       68.07648580        0.12288866        0.00461872        1.08500000        1.07260527
     8.00928399       68.09931597        0.12429846        0.00372497        1.08500000        1.07229954
     8.05904908       68.12214614        0.12569034        0.00284139        1.08500000        1.07199411
     8.10791073       68.14497630        0.12706496        0.00196763        1.08500000        1.07168900
     8.15590419       68.16780647        0.12842292        0.00110333        1.08500000        1.07138420
     8.20306255       68.19063664        0.12976481        0.00024816        1.08500000        1.07107972
     8.24941684       68.21346681        0.13109117       -0.00059819        1.08500000        1.07077554
     8.29499636       68.23629698        0.13240250       -0.00143602        1.08500000        1.07047168
     8.33982860       68.25912714        0.13369931       -0.00226561        1.08500000        1.07016813
     8.38393954       68.28195731        0.13498204       -0.00308721        1.08500000        1.06986489
     8.42735377       68.30478748        0.13625114       -0.00390108        1.08500000        1.06956197
     8.47009445       68.32761765        0.13750701       -0.00470745        1.08500000        1.06925935
     8.51218355       68.35044781        0.13875005       -0.00550655        1.08500000        1.06895705
     8.55364190       68.37327798        0.13998064       -0.00629860        1.08500000        1.06865506
     8.59448923       68.39610815        0.14119912       -0.00708379        1.08500000        1.06835338
     8.63474430       68.41893832        0.14240584       -0.00786231        1.08500000        1.06805201
     8.67442494       68.44176849        0.14360112       -0.00863436        1.08500000        1.06775096
     8.71354809       68.46459865        0.14478526       -0.00940011        1.08500000        1.06745021
     8.75212993       68.48742882        0.14595857       -0.01015972        1.08500000        1.06714978
     8.79018581       68.51025899        0.14712131       -0.01091336        1.08500000        1.06684966
     8.82773044       68.53308916        0.14827377       -0.01166118        1.08500000        1.06654985
     8.86477782       68.55591933        0.14941619       -0.01240332        1.08500000        1.06625035
     8.90134135       68.57874949        0.15054883       -0.01313994        1.08500000        1.06595116
     8.93743381       68.60157966        0.15167191       -0.01387115        1.08500000        1.06565228
     8.97306747       68.62440983        0.15278567       -0.01459710        1.08500000        1.06535372
     9.00825404       68.64724000        0.15389033       -0.01531790        1.08500000        1.06505547
     9.04300477       68.67007016        0.15498608       -0.01603367        1.08500000        1.06475752
     9.07733044       68.69290033        0.15607314       -0.01674454        1.08500000        1.06445989
     9.11124136       68.71573050        0.15715169       -0.01745060        1.08500000        1.06416257
     9.14474746       68.73856067        0.15822193       -0.01815197        1.08500000        1.06386556
     9.17785828       68.76139084        0.15928402       -0.01884874        1.08500000        1.06356887
     9.21058297       68.78422100        0.16033814       -0.01954101        1.08500000        1.06327248
     9.24293033       68.80705117        0.16138446       -0.02022889        1.08500000        1.06297640
     9.27490884       68.82988134        0.16242314       -0.02091245        1.08500000        1.06268064
     9.30652668       68.85271151        0.16345433       -0.02159179        1.08500000        1.06238518
     9.33779168       68.87554167        0.16447818       -0.02226699        1.08500000        1.06209004
     9.36871143       68.89837184        0.16549483       -0.02293814        1.08500000        1.06179521
     9.39929321       68.92120201        0.16650443       -0.02360531        1.08500000        1.06150069
     9.42954409       68.94403218        0.16750710       -0.02426857        1.08500000        1.06120648
     9.45947085       68.96686235        0.16850298       -0.02492801        1.08500000        1.06091258
     9.48908006       68.98969251        0.16949219       -0.02558370        1.08500000        1.06061899
     9.51837804       69.01252268        0.17047486       -0.02623569        1.08500000        1.06032571
     9.54737095       69.03535285        0.17145109       -0.02688407        1.08500000        1.06003274
     9.57606469       69.05818302        0.17242101       -0.02752888        1.08500000        1.05974008
     9.60446501       69.08101318        0.17338473       -0.02817021        1.08500000        1.05944773
     9.63257742       69.10384335        0.17434235       -0.02880810        1.08500000        1.05915570
     9.66040731       69.12667352        0.17529398       -0.02944262        1.08500000        1.05886397
     9.68795986       69.14950369        0.17623971       -0.03007382        1.08500000        1.05857255
     9.71524010       69.17233386        0.17717965       -0.03070176        1.08500000        1.05828145
     9.74225293       69.19516402        0.17811388       -0.03132649        1.08500000        1.05799065
     9.76900305       69.21799419        0.17904251       -0.03194806        1.08500000        1.05770017
     9.79549508       69.24082436        0.17996562       -0.03256653        1.08500000        1.05740999
     9.82173342       69.26365453        0.18088329       -0.03318194        1.08500000        1.05712013
     9.84772242       69.28648470        0.18179562       -0.03379435        1.08500000        1.05683057
     9.87346624       69.30931486        0.18270268       -0.03440379        1.08500000        1.05654133
     9.89896897       69.33214503        0.18360455       -0.03501031        1.08500000        1.05625239
     9.92423456       69.35497520        0.18450132       -0.03561396        1.08500000        1.05596377
     9.94926684       69.37780537        0.18539305       -0.03621477        1.08500000        1.05567545
     9.97406953       69.40063553        0.18627982       -0.03681280        1.08500000        1.05538745
     9.99864626       69.42346570        0.18716170       -0.03740807        1.08500000        1.05509975
    10.02300058       69.44629587        0.18803876       -0.03800064        1.08500000        1.05481237
    10.04713589       69.46912604        0.18891107       -0.03859053        1.08500000        1.05452530
    10.07105554       69.49195621        0.18977869       -0.03917779        1.08500000        1.05423853
    10.09476278       69.51478637        0.19064170       -0.03976245        1.08500000        1.05395208
    10.11826079       69.53761654        0.19150014       -0.04034454        1.08500000        1.05366593
    10.14155261       69.56044671        0.19235409       -0.04092410        1.08500000        1.05338010
    10.16464126       69.58327688        0.19320360       -0.04150117        1.08500000        1.05309457
    10.18752967       69.60610704        0.19404873       -0.04207578        1.08500000        1.05280936
    10.21022067       69.62893721        0.19488954       -0.04264795        1.08500000        1.05252445
    10.23271703       69.65176738        0.19572609       -0.04321772        1.08500000        1.05223986
    10.25502149       69.67459755        0.19655841       -0.04378512        1.08500000        1.05195557
    10.27713666       69.69742772        0.19738658       -0.04435018        1.08500000        1.05167160
    10.29906512       69.72025788        0.19821064       -0.04491293        1.08500000        1.05138793
    10.32080939       69.74308805        0.19903065       -0.04547339        1.08500000        1.05110457
    10.34237190       69.76591822        0.19984664       -0.04603160        1.08500000        1.05082153
    10.36375505       69.78874839        0.20065867       -0.04658758        1.08500000        1.05053879
    10.38496120       69.81157855        0.20146679       -0.04714135        1.08500000        1.05025636
    10.40599260       69.83440872        0.20227104       -0.04769295        1.08500000        1.04997424
    10.42685148       69.85723889        0.20307147       -0.04824239        1.08500000        1.04969243
    10.44754003       69.88006906        0.20386811       -0.04878971        1.08500000        1.04941093
    10.46806035       69.90289923        0.20466102       -0.04933492        1.08500000        1.04912974
    10.48841454       69.92572939        0.20545024       -0.04987805        1.08500000        1.04884886
    10.50860461       69.94855956        0.20623580       -0.05041912        1.08500000        1.04856829
    10.52863258       69.97138973        0.20701775       -0.05095815        1.08500000        1.04828803
    10.54850035       69.99421990        0.20779613       -0.05149517        1.08500000        1.04800808
    10.56820982       70.01705006        0.20857097       -0.05203020        1.08500000        1.04772843
    10.58776287       70.03988023        0.20934231       -0.05256325        1.08500000        1.04744910
    10.60716131       70.06271040        0.21011020       -0.05309436        1.08500000        1.04717008
    10.62640690       70.08554057        0.21087466       -0.05362353        1.08500000        1.04689136
    10.64550139       70.10837074        0.21163572       -0.05415078        1.08500000        1.04661295
    10.66444648       70.13120090        0.21239344       -0.05467615        1.08500000        1.04633486
    10.68324383       70.15403107        0.21314783       -0.05519964        1.08500000        1.04605707
    10.70189507       70.17686124        0.21389894       -0.05572127        1.08500000        1.04577959
    10.72040181       70.19969141        0.21464679       -0.05624107        1.08500000        1.04550242
    10.73876560       70.22252158        0.21539142       -0.05675905        1.08500000        1.04522556
    10.75698799       70.24535174        0.21613286       -0.05727522        1.08500000        1.04494901
    10.77507045       70.26818191        0.21687114       -0.05778960        1.08500000        1.04467277
    10.79301447       70.29101208        0.21760629       -0.05830222        1.08500000        1.04439684
    10.81082150       70.31384225        0.21833833       -0.05881308        1.08500000        1.04412122
    10.82849294       70.33667241        0.21906731       -0.05932221        1.08500000        1.04384590
    10.84603018       70.35950258        0.21979324       -0.05982961        1.08500000        1.04357090
    10.86343456       70.38233275        0.22051616       -0.06033530        1.08500000        1.04329620
    10.88070744       70.40516292        0.22123608       -0.06083930        1.08500000        1.04302181
    10.89785010       70.42799309        0.22195305       -0.06134163        1.08500000        1.04274774
    10.91486383       70.45082325        0.22266708       -0.06184229        1.08500000        1.04247397
    10.93174989       70.47365342        0.22337821       -0.06234130        1.08500000        1.04220051
    10.94850951       70.49648359        0.22408645       -0.06283868        1.08500000        1.04192736
    10.96514390       70.51931376        0.22479183       -0.06333443        1.08500000        1.04165452
    10.98165425       70.54214392        0.22549437       -0.06382858        1.08500000        1.04138198
    10.99804170       70.56497409        0.22619411       -0.06432113        1.08500000        1.04110976
    11.01430742       70.58780426        0.22689106       -0.06481209        1.08500000        1.04083784
    11.03045252       70.61063443        0.22758525       -0.06530149        1.08500000        1.04056624
    11.04647809       70.63346460        0.22827670       -0.06578933        1.08500000        1.04029494
    11.06238525       70.65629476        0.22896542       -0.06627562        1.08500000        1.04002395
    11.07817502       70.67912493        0.22965146       -0.06676038        1.08500000        1.03975327
    11.09384847       70.70195510        0.23033482       -0.06724362        1.08500000        1.03948290
    11.10940661       70.72478527        0.23101552       -0.06772535        1.08500000        1.03921284
    11.12485045       70.74761543        0.23169359       -0.06820557        1.08500000        1.03894309
    11.14018098       70.77044560        0.23236906       -0.06868431        1.08500000        1.03867364
    11.15539917       70.79327577        0.23304192       -0.06916157        1.08500000        1.03840451
    11.17050598       70.81610594        0.23371222       -0.06963736        1.08500000        1.03813568
    11.18550233       70.83893611        0.23437997       -0.07011169        1.08500000        1.03786716
    11.20038917       70.86176627        0.23504518       -0.07058458        1.08500000        1.03759896
    11.21516738       70.88459644        0.23570788       -0.07105603        1.08500000        1.03733106
    11.22983787       70.90742661        0.23636808       -0.07152605        1.08500000        1.03706347
    11.24440150       70.93025678        0.23702581       -0.07199466        1.08500000        1.03679618
    11.25885915       70.95308695        0.23768107       -0.07246186        1.08500000        1.03652921
    11.27321166       70.97591711        0.23833390       -0.07292766        1.08500000        1.03626254
    11.28745986       70.99874728        0.23898430       -0.07339207        1.08500000        1.03599619
    11.30160455       71.02157745        0.23963229       -0.07385510        1.08500000        1.03573014
    11.31564658       71.04440762        0.24027789       -0.07431676        1.08500000        1.03546440
    11.32958671       71.06723778        0.24092112       -0.07477705        1.08500000        1.03519897
    11.34342573       71.09006795        0.24156199       -0.07523599        1.08500000        1.03493385
    11.35716440       71.11289812        0.24220052       -0.07569359        1.08500000        1.03466904
    11.37080348       71.13572829        0.24283672       -0.07614985        1.08500000        1.03440453
    11.38434372       71.15855846        0.24347061       -0.07660478        1.08500000        1.03414034
    11.39778585       71.18138862        0.24410221       -0.07705838        1.08500000        1.03387645
    11.41113057       71.20421879        0.24473152       -0.07751068        1.08500000        1.03361288
    11.42437862       71.22704896        0.24535857       -0.07796167        1.08500000        1.03334961
    11.43753067       71.24987913        0.24598338       -0.07841136        1.08500000        1.03308665
    11.45058742       71.27270929        0.24660594       -0.07885975        1.08500000        1.03282399
