#  Theta paroi en deg Angle Choc en deg       Kp           Inverse Mach       Mach amont       Mach aval
     0.00000000       41.13951041        0.00000000        0.34210526        1.52000000
     2.18017357       41.14097623        0.00969491        0.33743980        1.52000000        1.51995305
     2.57176308       41.14302716        0.01286158        0.33591465        1.52000000        1.51988737
     3.01650305       41.14683346        0.01686633        0.33398489        1.52000000        1.51976547
     3.50877352       41.15356535        0.02177025        0.33162030        1.52000000        1.51954993
     4.02295093       41.16439307        0.02738591        0.32891028        1.52000000        1.51920335
     4.54310889       41.18048687        0.03354851        0.32593338        1.52000000        1.51868844
     5.06191285       41.20301699        0.04015109        0.32274030        1.52000000        1.51796809
     5.57666104       41.23315365        0.04713031        0.31936069        1.52000000        1.51700539
     6.08688571       41.27206711        0.05445117        0.31581046        1.52000000        1.51576378
     6.59315663       41.32092760        0.06209695        0.31209663        1.52000000        1.51420711
     7.01041157       41.36978809        0.06867519        0.30889610        1.52000000        1.51265299
     7.36973607       41.41864858        0.07453548        0.30604058        1.52000000        1.51110142
     7.68796668       41.46750907        0.07987354        0.30343583        1.52000000        1.50955240
     7.97533677       41.51636956        0.08481148        0.30102306        1.52000000        1.50800589
     8.23857050       41.56523005        0.08943127        0.29876281        1.52000000        1.50646190
     8.48234270       41.61409054        0.09379094        0.29662715        1.52000000        1.50492041
     8.71004601       41.66295103        0.09793328        0.29459546        1.52000000        1.50338140
     8.92422702       41.71181152        0.10189083        0.29265207        1.52000000        1.50184488
     9.12685003       41.76067201        0.10568903        0.29078473        1.52000000        1.50031081
     9.31946475       41.80953250        0.10934816        0.28898368        1.52000000        1.49877920
     9.50331705       41.85839299        0.11288469        0.28724099        1.52000000        1.49725003
     9.67942479       41.90725348        0.11631220        0.28555012        1.52000000        1.49572329
     9.84863117       41.95611397        0.11964202        0.28390559        1.52000000        1.49419896
    10.01164317       42.00497446        0.12288375        0.28230280        1.52000000        1.49267704
    10.16905991       42.05383495        0.12604556        0.28073780        1.52000000        1.49115752
    10.32139387       42.10269544        0.12913450        0.27920720        1.52000000        1.48964037
    10.46908714       42.15155593        0.13215668        0.27770804        1.52000000        1.48812560
    10.61252395       42.20041642        0.13511745        0.27623776        1.52000000        1.48661319
    10.75204056       42.24927691        0.13802151        0.27479408        1.52000000        1.48510313
    10.88793303       42.29813739        0.14087302        0.27337500        1.52000000        1.48359540
    11.02046350       42.34699788        0.14367569        0.27197873        1.52000000        1.48209001
    11.14986529       42.39585837        0.14643282        0.27060367        1.52000000        1.48058693
    11.27634707       42.44471886        0.14914738        0.26924839        1.52000000        1.47908615
    11.40009621       42.49357935        0.15182206        0.26791159        1.52000000        1.47758768
    11.52128170       42.54243984        0.15445929        0.26659211        1.52000000        1.47609148
    11.64005652       42.59130033        0.15706127        0.26528886        1.52000000        1.47459756
    11.75655960       42.64016082        0.15963000        0.26400089        1.52000000        1.47310590
    11.87091753       42.68902131        0.16216733        0.26272730        1.52000000        1.47161650
    11.98324605       42.73788180        0.16467493        0.26146728        1.52000000        1.47012934
    12.09365121       42.78674229        0.16715436        0.26022008        1.52000000        1.46864441
    12.20223052       42.83560278        0.16960705        0.25898501        1.52000000        1.46716171
    12.30907377       42.88446327        0.17203430        0.25776143        1.52000000        1.46568122
    12.41426390       42.93332376        0.17443734        0.25654875        1.52000000        1.46420293
    12.51787772       42.98218425        0.17681731        0.25534641        1.52000000        1.46272683
    12.61998641       43.03104474        0.17917525        0.25415391        1.52000000        1.46125292
    12.72065618       43.07990523        0.18151215        0.25297076        1.52000000        1.45978118
    12.81994863       43.12876572        0.18382891        0.25179654        1.52000000        1.45831160
    12.91792127       43.17762621        0.18612640        0.25063081        1.52000000        1.45684418
    13.01462779       43.22648670        0.18840541        0.24947319        1.52000000        1.45537890
    13.11011847       43.27534719        0.19066670        0.24832331        1.52000000        1.45391575
    13.20444044       43.32420768        0.19291096        0.24718083        1.52000000        1.45245474
    13.29763793       43.37306817        0.19513886        0.24604543        1.52000000        1.45099584
    13.38975252       43.42192866        0.19735103        0.24491680        1.52000000        1.44953904
    13.48082336       43.47078914        0.19954805        0.24379465        1.52000000        1.44808435
    13.57088735       43.51964963        0.20173047        0.24267871        1.52000000        1.44663174
    13.65997930       43.56851012        0.20389882        0.24156872        1.52000000        1.44518121
    13.74813211       43.61737061        0.20605359        0.24046445        1.52000000        1.44373275
    13.83537690       43.66623110        0.20819526        0.23936565        1.52000000        1.44228636
    13.92174313       43.71509159        0.21032427        0.23827212        1.52000000        1.44084202
    14.00725873       43.76395208        0.21244104        0.23718364        1.52000000        1.43939972
    14.09195021       43.81281257        0.21454597        0.23610001        1.52000000        1.43795946
    14.17584274       43.86167306        0.21663944        0.23502105        1.52000000        1.43652122
    14.25896025       43.91053355        0.21872182        0.23394657        1.52000000        1.43508501
    14.34132549       43.95939404        0.22079345        0.23287641        1.52000000        1.43365080
    14.42296018       44.00825453        0.22285466        0.23181040        1.52000000        1.43221860
    14.50388496       44.05711502        0.22490576        0.23074839        1.52000000        1.43078839
    14.58411955       44.10597551        0.22694705        0.22969022        1.52000000        1.42936016
    14.66368278       44.15483600        0.22897882        0.22863576        1.52000000        1.42793391
    14.74259263       44.20369649        0.23100134        0.22758487        1.52000000        1.42650963
    14.82086630       44.25255698        0.23301487        0.22653741        1.52000000        1.42508731
    14.89852021       44.30141747        0.23501967        0.22549326        1.52000000        1.42366694
    14.97557014       44.35027796        0.23701596        0.22445230        1.52000000        1.42224852
    15.05203115       44.39913845        0.23900399        0.22341442        1.52000000        1.42083203
    15.12791773       44.44799894        0.24098398        0.22237951        1.52000000        1.41941747
    15.20324373       44.49685943        0.24295612        0.22134745        1.52000000        1.41800483
    15.27802248       44.54571992        0.24492063        0.22031814        1.52000000        1.41659411
    15.35226676       44.59458041        0.24687770        0.21929149        1.52000000        1.41518529
    15.42598885       44.64344089        0.24882752        0.21826740        1.52000000        1.41377836
    15.49920058       44.69230138        0.25077026        0.21724578        1.52000000        1.41237333
    15.57191331       44.74116187        0.25270611        0.21622654        1.52000000        1.41097018
    15.64413798       44.79002236        0.25463522        0.21520960        1.52000000        1.40956890
    15.71588512       44.83888285        0.25655776        0.21419486        1.52000000        1.40816949
    15.78716488       44.88774334        0.25847388        0.21318227        1.52000000        1.40677195
    15.85798704       44.93660383        0.26038372        0.21217173        1.52000000        1.40537625
    15.92836103       44.98546432        0.26228744        0.21116317        1.52000000        1.40398240
    15.99829595       45.03432481        0.26418518        0.21015652        1.52000000        1.40259039
    16.06780059       45.08318530        0.26607705        0.20915172        1.52000000        1.40120021
    16.13688342       45.13204579        0.26796320        0.20814869        1.52000000        1.39981185
    16.20555265       45.18090628        0.26984375        0.20714737        1.52000000        1.39842531
    16.27381617       45.22976677        0.27171881        0.20614769        1.52000000        1.39704059
    16.34168167       45.27862726        0.27358851        0.20514960        1.52000000        1.39565766
    16.40915653       45.32748775        0.27545295        0.20415304        1.52000000        1.39427653
    16.47624791       45.37634824        0.27731225        0.20315795        1.52000000        1.39289719
    16.54296276       45.42520873        0.27916650        0.20216427        1.52000000        1.39151963
    16.60930778       45.47406922        0.28101582        0.20117195        1.52000000        1.39014385
    16.67528947       45.52292971        0.28286029        0.20018094        1.52000000        1.38876984
    16.74091413       45.57179020        0.28470002        0.19919119        1.52000000        1.38739759
    16.80618788       45.62065069        0.28653509        0.19820264        1.52000000        1.38602710
    16.87111662       45.66951118        0.28836559        0.19721525        1.52000000        1.38465835
    16.93570610       45.71837167        0.29019162        0.19622897        1.52000000        1.38329135
    16.99996188       45.76723216        0.29201325        0.19524376        1.52000000        1.38192609
    17.06388938       45.81609264        0.29383056        0.19425957        1.52000000        1.38056255
    17.12749384       45.86495313        0.29564364        0.19327637        1.52000000        1.37920074
    17.19078035       45.91381362        0.29745256        0.19229409        1.52000000        1.37784065
    17.25375387       45.96267411        0.29925740        0.19131272        1.52000000        1.37648227
    17.31641919       46.01153460        0.30105822        0.19033220        1.52000000        1.37512560
    17.37878100       46.06039509        0.30285509        0.18935250        1.52000000        1.37377062
    17.44084384       46.10925558        0.30464809        0.18837358        1.52000000        1.37241734
    17.50261211       46.15811607        0.30643728        0.18739541        1.52000000        1.37106574
    17.56409011       46.20697656        0.30822273        0.18641794        1.52000000        1.36971583
    17.62528203       46.25583705        0.31000448        0.18544114        1.52000000        1.36836759
    17.68619193       46.30469754        0.31178262        0.18446498        1.52000000        1.36702101
    17.74682376       46.35355803        0.31355718        0.18348943        1.52000000        1.36567611
    17.80718138       46.40241852        0.31532824        0.18251445        1.52000000        1.36433286
    17.86726854       46.45127901        0.31709585        0.18154001        1.52000000        1.36299126
    17.92708890       46.50013950        0.31886005        0.18056608        1.52000000        1.36165130
    17.98664601       46.54899999        0.32062091        0.17959263        1.52000000        1.36031299
    18.04594334       46.59786048        0.32237847        0.17861963        1.52000000        1.35897631
    18.10498427       46.64672097        0.32413278        0.17764705        1.52000000        1.35764126
    18.16377209       46.69558146        0.32588389        0.17667486        1.52000000        1.35630784
    18.22231002       46.74444195        0.32763186        0.17570303        1.52000000        1.35497603
    18.28060119       46.79330244        0.32937671        0.17473154        1.52000000        1.35364583
    18.33864866       46.84216293        0.33111851        0.17376037        1.52000000        1.35231724
    18.39645540       46.89102342        0.33285728        0.17278947        1.52000000        1.35099026
    18.45402432       46.93988391        0.33459308        0.17181884        1.52000000        1.34966487
    18.51135827       46.98874439        0.33632594        0.17084844        1.52000000        1.34834107
    18.56846001       47.03760488        0.33805591        0.16987825        1.52000000        1.34701885
    18.62533225       47.08646537        0.33978302        0.16890824        1.52000000        1.34569822
    18.68197763       47.13532586        0.34150732        0.16793840        1.52000000        1.34437916
    18.73839872       47.18418635        0.34322883        0.16696869        1.52000000        1.34306167
    18.79459806       47.23304684        0.34494760        0.16599911        1.52000000        1.34174575
    18.85057808       47.28190733        0.34666365        0.16502961        1.52000000        1.34043138
    18.90634121       47.33076782        0.34837703        0.16406019        1.52000000        1.33911857
    18.96188980       47.37962831        0.35008777        0.16309083        1.52000000        1.33780731
    19.01722613       47.42848880        0.35179590        0.16212149        1.52000000        1.33649760
    19.07235245       47.47734929        0.35350145        0.16115216        1.52000000        1.33518943
    19.12727096       47.52620978        0.35520445        0.16018282        1.52000000        1.33388279
    19.18198380       47.57507027        0.35690494        0.15921346        1.52000000        1.33257768
    19.23649309       47.62393076        0.35860294        0.15824404        1.52000000        1.33127409
    19.29080084       47.67279125        0.36029848        0.15727456        1.52000000        1.32997203
    19.34490910       47.72165174        0.36199158        0.15630499        1.52000000        1.32867149
    19.39881981       47.77051223        0.36368229        0.15533531        1.52000000        1.32737245
    19.45253490       47.81937272        0.36537062        0.15436552        1.52000000        1.32607492
    19.50605624       47.86823321        0.36705660        0.15339558        1.52000000        1.32477889
    19.55938569       47.91709370        0.36874025        0.15242548        1.52000000        1.32348437
    19.61252504       47.96595419        0.37042160        0.15145521        1.52000000        1.32219133
    19.66547605       48.01481468        0.37210068        0.15048475        1.52000000        1.32089978
    19.71824045       48.06367517        0.37377750        0.14951408        1.52000000        1.31960972
    19.77081994       48.11253566        0.37545210        0.14854318        1.52000000        1.31832113
    19.82321616       48.16139614        0.37712448        0.14757204        1.52000000        1.31703402
    19.87543074       48.21025663        0.37879468        0.14660065        1.52000000        1.31574839
    19.92746527       48.25911712        0.38046272        0.14562899        1.52000000        1.31446421
    19.97932130       48.30797761        0.38212862        0.14465703        1.52000000        1.31318150
    20.03100036       48.35683810        0.38379239        0.14368478        1.52000000        1.31190025
    20.08250394       48.40569859        0.38545407        0.14271221        1.52000000        1.31062045
    20.13383350       48.45455908        0.38711366        0.14173931        1.52000000        1.30934210
    20.18499048       48.50341957        0.38877118        0.14076606        1.52000000        1.30806520
    20.23597628       48.55228006        0.39042666        0.13979245        1.52000000        1.30678974
    20.28679228       48.60114055        0.39208012        0.13881847        1.52000000        1.30551571
    20.33743983       48.65000104        0.39373157        0.13784410        1.52000000        1.30424312
    20.38792025       48.69886153        0.39538102        0.13686933        1.52000000        1.30297195
    20.43823485       48.74772202        0.39702850        0.13589415        1.52000000        1.30170221
    20.48838488       48.79658251        0.39867402        0.13491854        1.52000000        1.30043389
    20.53837161       48.84544300        0.40031760        0.13394248        1.52000000        1.29916699
    20.58819625       48.89430349        0.40195926        0.13296598        1.52000000        1.29790150
    20.63786001       48.94316398        0.40359900        0.13198901        1.52000000        1.29663743
    20.68736406       48.99202447        0.40523685        0.13101156        1.52000000        1.29537475
    20.73670955       49.04088496        0.40687282        0.13003363        1.52000000        1.29411348
    20.78589762       49.08974545        0.40850692        0.12905519        1.52000000        1.29285360
    20.83492938       49.13860594        0.41013917        0.12807624        1.52000000        1.29159512
    20.88380592       49.18746643        0.41176958        0.12709676        1.52000000        1.29033803
    20.93252830       49.23632692        0.41339816        0.12611674        1.52000000        1.28908233
    20.98109758       49.28518741        0.41502493        0.12513618        1.52000000        1.28782801
    21.02951479       49.33404790        0.41664991        0.12415506        1.52000000        1.28657507
    21.07778092       49.38290838        0.41827309        0.12317336        1.52000000        1.28532350
    21.12589699       49.43176887        0.41989450        0.12219109        1.52000000        1.28407331
    21.17386396       49.48062936        0.42151415        0.12120822        1.52000000        1.28282449
    21.22168278       49.52948985        0.42313205        0.12022474        1.52000000        1.28157703
    21.26935439       49.57835034        0.42474820        0.11924066        1.52000000        1.28033093
    21.31687972       49.62721083        0.42636263        0.11825595        1.52000000        1.27908619
    21.36425965       49.67607132        0.42797534        0.11727060        1.52000000        1.27784280
    21.41149510       49.72493181        0.42958635        0.11628462        1.52000000        1.27660077
    21.45858691       49.77379230        0.43119565        0.11529797        1.52000000        1.27536008
    21.50553594       49.82265279        0.43280327        0.11431066        1.52000000        1.27412074
    21.55234305       49.87151328        0.43440921        0.11332268        1.52000000        1.27288274
    21.59900905       49.92037377        0.43601349        0.11233401        1.52000000        1.27164608
