#  Theta paroi en deg Angle Choc en deg       Kp           Inverse Mach       Mach amont       Mach aval
     0.00000000       17.63970139        0.00000000        0.69696970        3.30000000
     1.50980707       17.64187220        0.00381556        0.69514979        3.30000000        3.29980878
     1.82483426       17.64490955        0.00523225        0.69448270        3.30000000        3.29954128
     2.16222465       17.65054651        0.00692661        0.69369082        3.30000000        3.29904503
     2.52568381       17.66051615        0.00894114        0.69275754        3.30000000        3.29816796
     2.90134051       17.67655155        0.01121579        0.69171426        3.30000000        3.29675887
     3.28120260       17.70038578        0.01370357        0.69058562        3.30000000        3.29466814
     3.66253301       17.73375192        0.01638186        0.68938458        3.30000000        3.29174860
     4.04532831       17.77838303        0.01924577        0.68811587        3.30000000        3.28785657
     4.43083356       17.83601220        0.02230209        0.68677904        3.30000000        3.28285315
     4.82082406       17.90837250        0.02556549        0.68537042        3.30000000        3.27660542
     5.14879567       17.98073280        0.02844107        0.68414466        3.30000000        3.27039555
     5.43654400       18.05309310        0.03106139        0.68303985        3.30000000        3.26422279
     5.69583004       18.12545340        0.03349985        0.68202174        3.30000000        3.25808639
     5.93378299       18.19781370        0.03580178        0.68106922        3.30000000        3.25198562
     6.15507743       18.27017400        0.03799736        0.68016821        3.30000000        3.24591978
     6.36295777       18.34253429        0.04010781        0.67930883        3.30000000        3.23988817
     6.55977509       18.41489459        0.04214865        0.67848384        3.30000000        3.23389013
     6.74729204       18.48725489        0.04413162        0.67768776        3.30000000        3.22792499
     6.92686678       18.55961519        0.04606583        0.67691634        3.30000000        3.22199213
     7.09956967       18.63197549        0.04795849        0.67616621        3.30000000        3.21609091
     7.26626048       18.70433579        0.04981544        0.67543462        3.30000000        3.21022072
     7.42764108       18.77669609        0.05164145        0.67471933        3.30000000        3.20438099
     7.58429245       18.84905638        0.05344048        0.67401849        3.30000000        3.19857112
     7.73670131       18.92141668        0.05521588        0.67333051        3.30000000        3.19279055
     7.88527989       18.99377698        0.05697047        0.67265407        3.30000000        3.18703873
     8.03038055       19.06613728        0.05870668        0.67198800        3.30000000        3.18131513
     8.17230710       19.13849758        0.06042658        0.67133133        3.30000000        3.17561922
     8.31132341       19.21085788        0.06213201        0.67068317        3.30000000        3.16995049
     8.44766027       19.28321818        0.06382454        0.67004277        3.30000000        3.16430844
     8.58152075       19.35557848        0.06550558        0.66940945        3.30000000        3.15869258
     8.71308464       19.42793877        0.06717636        0.66878263        3.30000000        3.15310243
     8.84251181       19.50029907        0.06883799        0.66816175        3.30000000        3.14753754
     8.96994517       19.57265937        0.07049143        0.66754636        3.30000000        3.14199744
     9.09551304       19.64501967        0.07213759        0.66693601        3.30000000        3.13648170
     9.21933105       19.71737997        0.07377723        0.66633032        3.30000000        3.13098987
     9.34150386       19.78974027        0.07541109        0.66572893        3.30000000        3.12552155
     9.46212646       19.86210057        0.07703980        0.66513153        3.30000000        3.12007631
     9.58128540       19.93446086        0.07866395        0.66453781        3.30000000        3.11465376
     9.69905975       20.00682116        0.08028408        0.66394750        3.30000000        3.10925349
     9.81552196       20.07918146        0.08190068        0.66336037        3.30000000        3.10387513
     9.93073859       20.15154176        0.08351419        0.66277618        3.30000000        3.09851830
    10.04477097       20.22390206        0.08512503        0.66219472        3.30000000        3.09318263
    10.15767571       20.29626236        0.08673357        0.66161579        3.30000000        3.08786776
    10.26950517       20.36862266        0.08834017        0.66103922        3.30000000        3.08257334
    10.38030796       20.44098295        0.08994513        0.66046483        3.30000000        3.07729902
    10.49012919       20.51334325        0.09154876        0.65989247        3.30000000        3.07204449
    10.59901089       20.58570355        0.09315134        0.65932199        3.30000000        3.06680939
    10.70699225       20.65806385        0.09475311        0.65875326        3.30000000        3.06159343
    10.81410990       20.73042415        0.09635432        0.65818614        3.30000000        3.05639627
    10.92039808       20.80278445        0.09795519        0.65762052        3.30000000        3.05121762
    11.02588891       20.87514475        0.09955591        0.65705628        3.30000000        3.04605718
    11.13061254       20.94750504        0.10115669        0.65649331        3.30000000        3.04091465
    11.23459732       21.01986534        0.10275770        0.65593151        3.30000000        3.03578975
    11.33786990       21.09222564        0.10435910        0.65537080        3.30000000        3.03068220
    11.44045542       21.16458594        0.10596106        0.65481107        3.30000000        3.02559173
    11.54237762       21.23694624        0.10756372        0.65425225        3.30000000        3.02051806
    11.64365891       21.30930654        0.10916721        0.65369425        3.30000000        3.01546094
    11.74432049       21.38166684        0.11077167        0.65313700        3.30000000        3.01042011
    11.84438245       21.45402713        0.11237722        0.65258042        3.30000000        3.00539531
    11.94386381       21.52638743        0.11398396        0.65202445        3.30000000        3.00038632
    12.04278265       21.59874773        0.11559202        0.65146902        3.30000000        2.99539287
    12.14115612       21.67110803        0.11720148        0.65091406        3.30000000        2.99041475
    12.23900056       21.74346833        0.11881244        0.65035952        3.30000000        2.98545172
    12.33633147       21.81582863        0.12042499        0.64980533        3.30000000        2.98050356
    12.43316365       21.88818893        0.12203921        0.64925146        3.30000000        2.97557004
    12.52951121       21.96054922        0.12365519        0.64869783        3.30000000        2.97065096
    12.62538760       22.03290952        0.12527299        0.64814441        3.30000000        2.96574609
    12.72080566       22.10526982        0.12689269        0.64759114        3.30000000        2.96085525
    12.81577767       22.17763012        0.12851436        0.64703798        3.30000000        2.95597821
    12.91031539       22.24999042        0.13013806        0.64648489        3.30000000        2.95111480
    13.00443003       22.32235072        0.13176384        0.64593182        3.30000000        2.94626481
    13.09813239       22.39471102        0.13339176        0.64537872        3.30000000        2.94142805
    13.19143275       22.46707132        0.13502188        0.64482558        3.30000000        2.93660435
    13.28434102       22.53943161        0.13665425        0.64427233        3.30000000        2.93179351
    13.37686669       22.61179191        0.13828891        0.64371896        3.30000000        2.92699537
    13.46901887       22.68415221        0.13992591        0.64316541        3.30000000        2.92220974
    13.56080634       22.75651251        0.14156528        0.64261167        3.30000000        2.91743647
    13.65223749       22.82887281        0.14320708        0.64205770        3.30000000        2.91267537
    13.74332044       22.90123311        0.14485134        0.64150346        3.30000000        2.90792630
    13.83406298       22.97359341        0.14649809        0.64094892        3.30000000        2.90318908
    13.92447261       23.04595370        0.14814737        0.64039406        3.30000000        2.89846357
    14.01455657       23.11831400        0.14979921        0.63983885        3.30000000        2.89374961
    14.10432183       23.19067430        0.15145363        0.63928326        3.30000000        2.88904705
    14.19377511       23.26303460        0.15311068        0.63872726        3.30000000        2.88435575
    14.28292290       23.33539490        0.15477038        0.63817083        3.30000000        2.87967556
    14.37177146       23.40775520        0.15643274        0.63761394        3.30000000        2.87500633
    14.46032685       23.48011550        0.15809780        0.63705657        3.30000000        2.87034794
    14.54859489       23.55247579        0.15976558        0.63649870        3.30000000        2.86570024
    14.63658126       23.62483609        0.16143610        0.63594029        3.30000000        2.86106311
    14.72429139       23.69719639        0.16310938        0.63538134        3.30000000        2.85643641
    14.81173059       23.76955669        0.16478543        0.63482181        3.30000000        2.85182003
    14.89890396       23.84191699        0.16646429        0.63426169        3.30000000        2.84721382
    14.98581647       23.91427729        0.16814596        0.63370096        3.30000000        2.84261768
    15.07247290       23.98663759        0.16983045        0.63313959        3.30000000        2.83803148
    15.15887790       24.05899788        0.17151779        0.63257757        3.30000000        2.83345510
    15.24503599       24.13135818        0.17320799        0.63201488        3.30000000        2.82888843
    15.33095151       24.20371848        0.17490106        0.63145150        3.30000000        2.82433137
    15.41662872       24.27607878        0.17659702        0.63088741        3.30000000        2.81978379
    15.50207173       24.34843908        0.17829587        0.63032260        3.30000000        2.81524559
    15.58728452       24.42079938        0.17999762        0.62975704        3.30000000        2.81071667
    15.67227097       24.49315968        0.18170229        0.62919072        3.30000000        2.80619691
    15.75703485       24.56551997        0.18340988        0.62862363        3.30000000        2.80168623
    15.84157980       24.63788027        0.18512040        0.62805575        3.30000000        2.79718452
    15.92590939       24.71024057        0.18683387        0.62748706        3.30000000        2.79269168
    16.01002706       24.78260087        0.18855028        0.62691755        3.30000000        2.78820761
    16.09393617       24.85496117        0.19026965        0.62634720        3.30000000        2.78373223
    16.17764000       24.92732147        0.19199197        0.62577600        3.30000000        2.77926544
    16.26114172       24.99968177        0.19371726        0.62520393        3.30000000        2.77480715
    16.34444443       25.07204206        0.19544552        0.62463099        3.30000000        2.77035728
    16.42755112       25.14440236        0.19717675        0.62405715        3.30000000        2.76591573
    16.51046475       25.21676266        0.19891096        0.62348241        3.30000000        2.76148242
    16.59318816       25.28912296        0.20064816        0.62290675        3.30000000        2.75705727
    16.67572414       25.36148326        0.20238833        0.62233015        3.30000000        2.75264020
    16.75807539       25.43384356        0.20413149        0.62175261        3.30000000        2.74823112
    16.84024456       25.50620386        0.20587764        0.62117411        3.30000000        2.74382997
    16.92223423       25.57856416        0.20762678        0.62059464        3.30000000        2.73943665
    17.00404690       25.65092445        0.20937891        0.62001420        3.30000000        2.73505111
    17.08568504       25.72328475        0.21113403        0.61943275        3.30000000        2.73067325
    17.16715102       25.79564505        0.21289215        0.61885031        3.30000000        2.72630301
    17.24844719       25.86800535        0.21465325        0.61826685        3.30000000        2.72194033
    17.32957580       25.94036565        0.21641735        0.61768236        3.30000000        2.71758512
    17.41053910       26.01272595        0.21818444        0.61709683        3.30000000        2.71323733
    17.49133925       26.08508625        0.21995451        0.61651026        3.30000000        2.70889687
    17.57197837       26.15744654        0.22172758        0.61592263        3.30000000        2.70456370
    17.65245852       26.22980684        0.22350363        0.61533393        3.30000000        2.70023774
    17.73278172       26.30216714        0.22528267        0.61474414        3.30000000        2.69591893
    17.81294997       26.37452744        0.22706469        0.61415327        3.30000000        2.69160721
    17.89296517       26.44688774        0.22884969        0.61356130        3.30000000        2.68730252
    17.97282923       26.51924804        0.23063767        0.61296822        3.30000000        2.68300480
    18.05254398       26.59160834        0.23242862        0.61237402        3.30000000        2.67871398
    18.13211123       26.66396863        0.23422255        0.61177870        3.30000000        2.67443002
    18.21153275       26.73632893        0.23601944        0.61118223        3.30000000        2.67015285
    18.29081025       26.80868923        0.23781930        0.61058462        3.30000000        2.66588243
    18.36994543       26.88104953        0.23962211        0.60998585        3.30000000        2.66161869
    18.44893994       26.95340983        0.24142789        0.60938592        3.30000000        2.65736158
    18.52779539       27.02577013        0.24323661        0.60878481        3.30000000        2.65311106
    18.60651338       27.09813043        0.24504828        0.60818252        3.30000000        2.64886707
    18.68509543       27.17049072        0.24686290        0.60757904        3.30000000        2.64462955
    18.76354308       27.24285102        0.24868045        0.60697436        3.30000000        2.64039847
    18.84185780       27.31521132        0.25050093        0.60636847        3.30000000        2.63617377
    18.92004105       27.38757162        0.25232435        0.60576137        3.30000000        2.63195540
    18.99809425       27.45993192        0.25415068        0.60515304        3.30000000        2.62774332
    19.07601880       27.53229222        0.25597993        0.60454347        3.30000000        2.62353748
    19.15381606       27.60465252        0.25781208        0.60393267        3.30000000        2.61933785
    19.23148738       27.67701281        0.25964715        0.60332062        3.30000000        2.61514436
    19.30903405       27.74937311        0.26148511        0.60270731        3.30000000        2.61095699
    19.38645738       27.82173341        0.26332596        0.60209273        3.30000000        2.60677568
    19.46375862       27.89409371        0.26516969        0.60147688        3.30000000        2.60260040
    19.54093900       27.96645401        0.26701631        0.60085975        3.30000000        2.59843111
    19.61799973       28.03881431        0.26886579        0.60024133        3.30000000        2.59426776
    19.69494201       28.11117461        0.27071814        0.59962162        3.30000000        2.59011032
    19.77176699       28.18353490        0.27257335        0.59900061        3.30000000        2.58595874
    19.84847583       28.25589520        0.27443140        0.59837828        3.30000000        2.58181300
    19.92506964       28.32825550        0.27629230        0.59775464        3.30000000        2.57767305
    20.00154951       28.40061580        0.27815604        0.59712967        3.30000000        2.57353885
    20.07791653       28.47297610        0.28002260        0.59650336        3.30000000        2.56941038
    20.15417176       28.54533640        0.28189199        0.59587572        3.30000000        2.56528759
    20.23031622       28.61769670        0.28376418        0.59524674        3.30000000        2.56117045
    20.30635095       28.69005700        0.28563918        0.59461639        3.30000000        2.55705893
    20.38227694       28.76241729        0.28751698        0.59398469        3.30000000        2.55295299
    20.45809516       28.83477759        0.28939757        0.59335162        3.30000000        2.54885260
    20.53380660       28.90713789        0.29128093        0.59271718        3.30000000        2.54475773
    20.60941217       28.97949819        0.29316707        0.59208135        3.30000000        2.54066834
    20.68491283       29.05185849        0.29505597        0.59144414        3.30000000        2.53658441
    20.76030947       29.12421879        0.29694763        0.59080553        3.30000000        2.53250591
    20.83560300       29.19657909        0.29884203        0.59016552        3.30000000        2.52843281
    20.91079429       29.26893938        0.30073917        0.58952410        3.30000000        2.52436507
    20.98588421       29.34129968        0.30263903        0.58888126        3.30000000        2.52030266
    21.06087359       29.41365998        0.30454162        0.58823701        3.30000000        2.51624557
    21.13576328       29.48602028        0.30644692        0.58759132        3.30000000        2.51219376
    21.21055409       29.55838058        0.30835492        0.58694420        3.30000000        2.50814720
    21.28524683       29.63074088        0.31026561        0.58629564        3.30000000        2.50410587
    21.35984228       29.70310118        0.31217899        0.58564563        3.30000000        2.50006974
    21.43434122       29.77546147        0.31409504        0.58499416        3.30000000        2.49603878
    21.50874440       29.84782177        0.31601375        0.58434124        3.30000000        2.49201298
    21.58305260       29.92018207        0.31793512        0.58368685        3.30000000        2.48799229
    21.65726652       29.99254237        0.31985913        0.58303098        3.30000000        2.48397671
    21.73138691       30.06490267        0.32178578        0.58237363        3.30000000        2.47996621
    21.80541446       30.13726297        0.32371506        0.58171480        3.30000000        2.47596076
    21.87934988       30.20962327        0.32564695        0.58105447        3.30000000        2.47196033
    21.95319385       30.28198356        0.32758145        0.58039265        3.30000000        2.46796491
    22.02694706       30.35434386        0.32951854        0.57972931        3.30000000        2.46397448
    22.10061014       30.42670416        0.33145823        0.57906447        3.30000000        2.45998900
    22.17418378       30.49906446        0.33340048        0.57839811        3.30000000        2.45600847
    22.24766860       30.57142476        0.33534531        0.57773022        3.30000000        2.45203285
    22.32106523       30.64378506        0.33729269        0.57706081        3.30000000        2.44806214
