#  Theta paroi en deg Angle Choc en deg       Kp           Inverse Mach       Mach amont       Mach aval
     0.00000000       36.27887387        0.00000000        0.40828402        1.69000000
     2.12912397       36.28048551        0.00885142        0.40417311        1.69000000        1.68994062
     2.53232503       36.28274047        0.01188714        0.40276484        1.69000000        1.68985755
     2.98143831       36.28692541        0.01565926        0.40101604        1.69000000        1.68970339
     3.47373959       36.29432699        0.02023256        0.39889731        1.69000000        1.68943080
     3.98548302       36.30623186        0.02543914        0.39648705        1.69000000        1.68899253
     4.50208066       36.32392667        0.03113381        0.39385294        1.69000000        1.68834147
     5.01706270       36.34869807        0.03722501        0.39103759        1.69000000        1.68743079
     5.52830309       36.38183273        0.04366125        0.38806492        1.69000000        1.68621399
     6.03574962       36.42461730        0.05041699        0.38494674        1.69000000        1.68464510
     6.54029789       36.47833843        0.05748344        0.38168704        1.69000000        1.68267879
     6.95712157       36.53205955        0.06357588        0.37887790        1.69000000        1.68071647
     7.31691544       36.58578068        0.06901541        0.37637056        1.69000000        1.67875813
     7.63628621       36.63950180        0.07398136        0.37408200        1.69000000        1.67680373
     7.92531943       36.69322293        0.07858537        0.37196051        1.69000000        1.67485326
     8.19063785       36.74694406        0.08290228        0.36997146        1.69000000        1.67290668
     8.43684338       36.80066518        0.08698497        0.36809038        1.69000000        1.67096397
     8.66727426       36.85438631        0.09087239        0.36629923        1.69000000        1.66902510
     8.88443526       36.90810744        0.09459413        0.36458433        1.69000000        1.66709006
     9.09025779       36.96182856        0.09817330        0.36293498        1.69000000        1.66515880
     9.28626514       37.01554969        0.10162827        0.36134268        1.69000000        1.66323132
     9.47368162       37.06927081        0.10497399        0.35980051        1.69000000        1.66130758
     9.65350721       37.12299194        0.10822274        0.35830279        1.69000000        1.65938756
     9.82657012       37.17671307        0.11138479        0.35684476        1.69000000        1.65747124
     9.99356463       37.23043419        0.11446880        0.35542242        1.69000000        1.65555859
    10.15507896       37.28415532        0.11748215        0.35403234        1.69000000        1.65364959
    10.31161619       37.33787644        0.12043120        0.35267159        1.69000000        1.65174421
    10.46361020       37.39159757        0.12332147        0.35133760        1.69000000        1.64984244
    10.61143808       37.44531870        0.12615776        0.35002815        1.69000000        1.64794425
    10.75542974       37.49903982        0.12894432        0.34874127        1.69000000        1.64604961
    10.89587559       37.55276095        0.13168488        0.34747522        1.69000000        1.64415851
    11.03303280       37.60648208        0.13438277        0.34622847        1.69000000        1.64227092
    11.16713017       37.66020320        0.13704097        0.34499963        1.69000000        1.64038682
    11.29837234       37.71392433        0.13966215        0.34378745        1.69000000        1.63850619
    11.42694303       37.76764545        0.14224871        0.34259083        1.69000000        1.63662901
    11.55300791       37.82136658        0.14480282        0.34140876        1.69000000        1.63475525
    11.67671694       37.87508771        0.14732646        0.34024030        1.69000000        1.63288489
    11.79820628       37.92880883        0.14982143        0.33908463        1.69000000        1.63101792
    11.91760001       37.98252996        0.15228937        0.33794098        1.69000000        1.62915431
    12.03501154       38.03625108        0.15473178        0.33680864        1.69000000        1.62729404
    12.15054479       38.08997221        0.15715006        0.33568698        1.69000000        1.62543709
    12.26429527       38.14369334        0.15954546        0.33457539        1.69000000        1.62358344
    12.37635095       38.19741446        0.16191917        0.33347332        1.69000000        1.62173307
    12.48679311       38.25113559        0.16427228        0.33238028        1.69000000        1.61988596
    12.59569692       38.30485671        0.16660579        0.33129577        1.69000000        1.61804209
    12.70313213       38.35857784        0.16892063        0.33021937        1.69000000        1.61620144
    12.80916355       38.41229897        0.17121769        0.32915067        1.69000000        1.61436399
    12.91385152       38.46602009        0.17349777        0.32808928        1.69000000        1.61252972
    13.01725233       38.51974122        0.17576164        0.32703484        1.69000000        1.61069861
    13.11941854       38.57346235        0.17801000        0.32598701        1.69000000        1.60887065
    13.22039939       38.62718347        0.18024351        0.32494550        1.69000000        1.60704581
    13.32024099       38.68090460        0.18246281        0.32390999        1.69000000        1.60522408
    13.41898663       38.73462572        0.18466847        0.32288021        1.69000000        1.60340544
    13.51667702       38.78834685        0.18686105        0.32185590        1.69000000        1.60158986
    13.61335045       38.84206798        0.18904107        0.32083682        1.69000000        1.59977734
    13.70904303       38.89578910        0.19120903        0.31982272        1.69000000        1.59796785
    13.80378883       38.94951023        0.19336537        0.31881339        1.69000000        1.59616137
    13.89762002       39.00323135        0.19551054        0.31780862        1.69000000        1.59435790
    13.99056706       39.05695248        0.19764495        0.31680820        1.69000000        1.59255740
    14.08265875       39.11067361        0.19976900        0.31581196        1.69000000        1.59075987
    14.17392243       39.16439473        0.20188305        0.31481972        1.69000000        1.58896528
    14.26438401       39.21811586        0.20398746        0.31383129        1.69000000        1.58717362
    14.35406810       39.27183699        0.20608256        0.31284653        1.69000000        1.58538487
    14.44299811       39.32555811        0.20816867        0.31186528        1.69000000        1.58359902
    14.53119630       39.37927924        0.21024610        0.31088738        1.69000000        1.58181605
    14.61868388       39.43300036        0.21231513        0.30991270        1.69000000        1.58003593
    14.70548104       39.48672149        0.21437603        0.30894111        1.69000000        1.57825867
    14.79160707       39.54044262        0.21642907        0.30797248        1.69000000        1.57648423
    14.87708036       39.59416374        0.21847450        0.30700668        1.69000000        1.57471261
    14.96191849       39.64788487        0.22051256        0.30604360        1.69000000        1.57294379
    15.04613827       39.70160599        0.22254347        0.30508312        1.69000000        1.57117775
    15.12975576       39.75532712        0.22456745        0.30412514        1.69000000        1.56941447
    15.21278637       39.80904825        0.22658471        0.30316955        1.69000000        1.56765395
    15.29524483       39.86276937        0.22859546        0.30221626        1.69000000        1.56589616
    15.37714527       39.91649050        0.23059987        0.30126516        1.69000000        1.56414109
    15.45850125       39.97021162        0.23259815        0.30031617        1.69000000        1.56238873
    15.53932579       40.02393275        0.23459045        0.29936919        1.69000000        1.56063906
    15.61963136       40.07765388        0.23657695        0.29842415        1.69000000        1.55889206
    15.69942999       40.13137500        0.23855782        0.29748096        1.69000000        1.55714773
    15.77873321       40.18509613        0.24053320        0.29653954        1.69000000        1.55540604
    15.85755212       40.23881726        0.24250325        0.29559981        1.69000000        1.55366699
    15.93589741       40.29253838        0.24446810        0.29466171        1.69000000        1.55193055
    16.01377936       40.34625951        0.24642791        0.29372515        1.69000000        1.55019672
    16.09120789       40.39998063        0.24838280        0.29279008        1.69000000        1.54846548
    16.16819255       40.45370176        0.25033289        0.29185642        1.69000000        1.54673681
    16.24474255       40.50742289        0.25227832        0.29092411        1.69000000        1.54501070
    16.32086677       40.56114401        0.25421920        0.28999309        1.69000000        1.54328715
    16.39657380       40.61486514        0.25615564        0.28906330        1.69000000        1.54156613
    16.47187192       40.66858626        0.25808776        0.28813468        1.69000000        1.53984763
    16.54676912       40.72230739        0.26001566        0.28720718        1.69000000        1.53813164
    16.62127314       40.77602852        0.26193944        0.28628073        1.69000000        1.53641814
    16.69539144       40.82974964        0.26385920        0.28535529        1.69000000        1.53470713
    16.76913127       40.88347077        0.26577505        0.28443081        1.69000000        1.53299858
    16.84249960       40.93719189        0.26768706        0.28350723        1.69000000        1.53129250
    16.91550321       40.99091302        0.26959533        0.28258451        1.69000000        1.52958885
    16.98814865       41.04463415        0.27149995        0.28166260        1.69000000        1.52788764
    17.06044226       41.09835527        0.27340100        0.28074145        1.69000000        1.52618884
    17.13239020       41.15207640        0.27529855        0.27982102        1.69000000        1.52449245
    17.20399842       41.20579753        0.27719269        0.27890127        1.69000000        1.52279845
    17.27527270       41.25951865        0.27908350        0.27798215        1.69000000        1.52110684
    17.34621865       41.31323978        0.28097103        0.27706363        1.69000000        1.51941759
    17.41684170       41.36696090        0.28285537        0.27614566        1.69000000        1.51773071
    17.48714713       41.42068203        0.28473659        0.27522821        1.69000000        1.51604616
    17.55714004       41.47440316        0.28661474        0.27431123        1.69000000        1.51436395
    17.62682543       41.52812428        0.28848990        0.27339470        1.69000000        1.51268407
    17.69620811       41.58184541        0.29036212        0.27247857        1.69000000        1.51100649
    17.76529278       41.63556653        0.29223147        0.27156280        1.69000000        1.50933121
    17.83408399       41.68928766        0.29409800        0.27064738        1.69000000        1.50765822
    17.90258619       41.74300879        0.29596176        0.26973225        1.69000000        1.50598751
    17.97080366       41.79672991        0.29782283        0.26881740        1.69000000        1.50431906
    18.03874063       41.85045104        0.29968123        0.26790279        1.69000000        1.50265287
    18.10640114       41.90417217        0.30153704        0.26698838        1.69000000        1.50098891
    18.17378917       41.95789329        0.30339029        0.26607415        1.69000000        1.49932720
    18.24090860       42.01161442        0.30524104        0.26516006        1.69000000        1.49766770
    18.30776316       42.06533554        0.30708934        0.26424610        1.69000000        1.49601041
    18.37435652       42.11905667        0.30893522        0.26333222        1.69000000        1.49435532
    18.44069224       42.17277780        0.31077873        0.26241841        1.69000000        1.49270242
    18.50677381       42.22649892        0.31261992        0.26150463        1.69000000        1.49105171
    18.57260460       42.28022005        0.31445882        0.26059086        1.69000000        1.48940316
    18.63818791       42.33394117        0.31629549        0.25967707        1.69000000        1.48775676
    18.70352695       42.38766230        0.31812995        0.25876324        1.69000000        1.48611252
    18.76862486       42.44138343        0.31996224        0.25784934        1.69000000        1.48447041
    18.83348469       42.49510455        0.32179241        0.25693536        1.69000000        1.48283044
    18.89810942       42.54882568        0.32362048        0.25602125        1.69000000        1.48119258
    18.96250197       42.60254680        0.32544650        0.25510701        1.69000000        1.47955683
    19.02666517       42.65626793        0.32727049        0.25419260        1.69000000        1.47792318
    19.09060178       42.70998906        0.32909249        0.25327801        1.69000000        1.47629161
    19.15431451       42.76371018        0.33091254        0.25236321        1.69000000        1.47466213
    19.21780600       42.81743131        0.33273065        0.25144819        1.69000000        1.47303472
    19.28107882       42.87115244        0.33454687        0.25053291        1.69000000        1.47140936
    19.34413550       42.92487356        0.33636122        0.24961736        1.69000000        1.46978606
    19.40697849       42.97859469        0.33817373        0.24870153        1.69000000        1.46816480
    19.46961018       43.03231581        0.33998443        0.24778538        1.69000000        1.46654558
    19.53203292       43.08603694        0.34179335        0.24686890        1.69000000        1.46492837
    19.59424901       43.13975807        0.34360051        0.24595207        1.69000000        1.46331319
    19.65626069       43.19347919        0.34540594        0.24503487        1.69000000        1.46170000
    19.71807013       43.24720032        0.34720966        0.24411728        1.69000000        1.46008882
    19.77967950       43.30092144        0.34901169        0.24319929        1.69000000        1.45847962
    19.84109088       43.35464257        0.35081207        0.24228087        1.69000000        1.45687240
    19.90230631       43.40836370        0.35261081        0.24136201        1.69000000        1.45526716
    19.96332780       43.46208482        0.35440793        0.24044268        1.69000000        1.45366387
    20.02415731       43.51580595        0.35620346        0.23952288        1.69000000        1.45206254
    20.08479674       43.56952708        0.35799742        0.23860259        1.69000000        1.45046316
    20.14524798       43.62324820        0.35978983        0.23768178        1.69000000        1.44886571
    20.20551287       43.67696933        0.36158070        0.23676045        1.69000000        1.44727019
    20.26559319       43.73069045        0.36337007        0.23583857        1.69000000        1.44567659
    20.32549071       43.78441158        0.36515794        0.23491613        1.69000000        1.44408491
    20.38520714       43.83813271        0.36694433        0.23399311        1.69000000        1.44249513
    20.44474416       43.89185383        0.36872927        0.23306951        1.69000000        1.44090724
    20.50410344       43.94557496        0.37051277        0.23214529        1.69000000        1.43932125
    20.56328657       43.99929608        0.37229484        0.23122046        1.69000000        1.43773713
    20.62229516       44.05301721        0.37407551        0.23029499        1.69000000        1.43615489
    20.68113073       44.10673834        0.37585478        0.22936886        1.69000000        1.43457451
    20.73979481       44.16045946        0.37763268        0.22844207        1.69000000        1.43299599
    20.79828889       44.21418059        0.37940923        0.22751460        1.69000000        1.43141932
    20.85661442       44.26790171        0.38118442        0.22658644        1.69000000        1.42984449
    20.91477283       44.32162284        0.38295828        0.22565757        1.69000000        1.42827150
    20.97276552       44.37534397        0.38473083        0.22472797        1.69000000        1.42670034
    21.03059385       44.42906509        0.38650207        0.22379764        1.69000000        1.42513099
    21.08825918       44.48278622        0.38827202        0.22286657        1.69000000        1.42356346
    21.14576282       44.53650735        0.39004070        0.22193473        1.69000000        1.42199774
    21.20310606       44.59022847        0.39180810        0.22100211        1.69000000        1.42043381
    21.26029016       44.64394960        0.39357425        0.22006871        1.69000000        1.41887168
    21.31731637       44.69767072        0.39533917        0.21913450        1.69000000        1.41731133
    21.37418590       44.75139185        0.39710285        0.21819948        1.69000000        1.41575276
    21.43089995       44.80511298        0.39886530        0.21726364        1.69000000        1.41419596
    21.48745968       44.85883410        0.40062656        0.21632696        1.69000000        1.41264092
    21.54386625       44.91255523        0.40238661        0.21538943        1.69000000        1.41108764
    21.60012078       44.96627635        0.40414547        0.21445103        1.69000000        1.40953612
    21.65622437       45.01999748        0.40590316        0.21351177        1.69000000        1.40798633
    21.71217811       45.07371861        0.40765967        0.21257161        1.69000000        1.40643828
    21.76798305       45.12743973        0.40941503        0.21163056        1.69000000        1.40489197
    21.82364025       45.18116086        0.41116923        0.21068860        1.69000000        1.40334738
    21.87915072       45.23488198        0.41292229        0.20974572        1.69000000        1.40180450
    21.93451547       45.28860311        0.41467422        0.20880191        1.69000000        1.40026334
    21.98973549       45.34232424        0.41642502        0.20785715        1.69000000        1.39872389
    22.04481173       45.39604536        0.41817470        0.20691144        1.69000000        1.39718613
    22.09974515       45.44976649        0.41992328        0.20596477        1.69000000        1.39565007
    22.15453669       45.50348762        0.42167075        0.20501712        1.69000000        1.39411569
    22.20918724       45.55720874        0.42341712        0.20406849        1.69000000        1.39258299
    22.26369772       45.61092987        0.42516241        0.20311885        1.69000000        1.39105197
    22.31806900       45.66465099        0.42690662        0.20216821        1.69000000        1.38952262
    22.37230193       45.71837212        0.42864975        0.20121656        1.69000000        1.38799493
    22.42639739       45.77209325        0.43039181        0.20026387        1.69000000        1.38646890
    22.48035619       45.82581437        0.43213281        0.19931015        1.69000000        1.38494452
    22.53417915       45.87953550        0.43387275        0.19835538        1.69000000        1.38342178
    22.58786708       45.93325662        0.43561164        0.19739954        1.69000000        1.38190068
