#  Theta paroi en deg Angle Choc en deg       Kp           Inverse Mach       Mach amont       Mach aval
     0.00000000       57.17563163        0.00000000        0.15966387        1.19000000
     2.10173793       57.17661636        0.01059698        0.15393044        1.19000000        1.18998008
     2.35460481       57.17799417        0.01293268        0.15266132        1.19000000        1.18995220
     2.68143994       57.18055123        0.01622704        0.15086794        1.19000000        1.18990047
     3.07056072       57.18507370        0.02053538        0.14851658        1.19000000        1.18980898
     3.49324882       57.19234774        0.02566779        0.14570649        1.19000000        1.18966186
     3.92967051       57.20315952        0.03143781        0.14253551        1.19000000        1.18944325
     4.36939092       57.21829520        0.03771411        0.13907192        1.19000000        1.18913735
     4.80747782       57.23854095        0.04441089        0.13535949        1.19000000        1.18872840
     5.24180797       57.26468292        0.05147255        0.13142569        1.19000000        1.18820076
     5.67164476       57.29750729        0.05886284        0.12728745        1.19000000        1.18753887
     6.02436973       57.33033166        0.06521859        0.12371072        1.19000000        1.18687769
     6.32663041       57.36315603        0.07086999        0.12051633        1.19000000        1.18621722
     6.59294787       57.39598040        0.07600395        0.11760279        1.19000000        1.18555745
     6.83218695       57.42880476        0.08073806        0.11490624        1.19000000        1.18489838
     7.05019217       57.46162913        0.08515183        0.11238347        1.19000000        1.18424002
     7.25103807       57.49445350        0.08930187        0.11000370        1.19000000        1.18358236
     7.43768839       57.52727787        0.09323017        0.10774412        1.19000000        1.18292541
     7.61237218       57.56010224        0.09696881        0.10558726        1.19000000        1.18226916
     7.77681182       57.59292661        0.10054297        0.10351944        1.19000000        1.18161360
     7.93236821       57.62575097        0.10397281        0.10152969        1.19000000        1.18095875
     8.08013693       57.65857534        0.10727476        0.09960907        1.19000000        1.18030459
     8.22101421       57.69139971        0.11046242        0.09775017        1.19000000        1.17965114
     8.35574333       57.72422408        0.11354717        0.09594679        1.19000000        1.17899838
     8.48494815       57.75704845        0.11653869        0.09419368        1.19000000        1.17834632
     8.60915789       57.78987282        0.11944522        0.09248634        1.19000000        1.17769495
     8.72882563       57.82269718        0.12227392        0.09082088        1.19000000        1.17704428
     8.84434258       57.85552155        0.12503100        0.08919391        1.19000000        1.17639430
     8.95604902       57.88834592        0.12772190        0.08760247        1.19000000        1.17574502
     9.06424296       57.92117029        0.13035143        0.08604394        1.19000000        1.17509643
     9.16918701       57.95399466        0.13292385        0.08451601        1.19000000        1.17444853
     9.27111382       57.98681903        0.13544296        0.08301659        1.19000000        1.17380132
     9.37023063       58.01964339        0.13791217        0.08154384        1.19000000        1.17315481
     9.46672286       58.05246776        0.14033454        0.08009609        1.19000000        1.17250898
     9.56075718       58.08529213        0.14271285        0.07867182        1.19000000        1.17186384
     9.65248394       58.11811650        0.14504960        0.07726967        1.19000000        1.17121939
     9.74203933       58.15094087        0.14734709        0.07588839        1.19000000        1.17057563
     9.82954713       58.18376524        0.14960741        0.07452684        1.19000000        1.16993256
     9.91512019       58.21658961        0.15183247        0.07318398        1.19000000        1.16929017
     9.99886168       58.24941397        0.15402402        0.07185885        1.19000000        1.16864847
    10.08086625       58.28223834        0.15618370        0.07055056        1.19000000        1.16800746
    10.16122093       58.31506271        0.15831299        0.06925831        1.19000000        1.16736712
    10.24000593       58.34788708        0.16041328        0.06798134        1.19000000        1.16672747
    10.31729539       58.38071145        0.16248586        0.06671895        1.19000000        1.16608851
    10.39315791       58.41353582        0.16453192        0.06547049        1.19000000        1.16545023
    10.46765720       58.44636018        0.16655257        0.06423534        1.19000000        1.16481262
    10.54085248       58.47918455        0.16854885        0.06301296        1.19000000        1.16417570
    10.61279891       58.51200892        0.17052173        0.06180280        1.19000000        1.16353946
    10.68354799       58.54483329        0.17247211        0.06060438        1.19000000        1.16290390
    10.75314783       58.57765766        0.17440086        0.05941723        1.19000000        1.16226902
    10.82164349       58.61048203        0.17630877        0.05824091        1.19000000        1.16163481
    10.88907724       58.64330639        0.17819659        0.05707501        1.19000000        1.16100129
    10.95548876       58.67613076        0.18006503        0.05591916        1.19000000        1.16036844
    11.02091536       58.70895513        0.18191476        0.05477297        1.19000000        1.15973627
    11.08539221       58.74177950        0.18374641        0.05363612        1.19000000        1.15910477
    11.14895243       58.77460387        0.18556059        0.05250827        1.19000000        1.15847394
    11.21162731       58.80742824        0.18735785        0.05138912        1.19000000        1.15784380
    11.27344643       58.84025260        0.18913873        0.05027838        1.19000000        1.15721432
    11.33443777       58.87307697        0.19090373        0.04917576        1.19000000        1.15658552
    11.39462784       58.90590134        0.19265335        0.04808101        1.19000000        1.15595739
    11.45404178       58.93872571        0.19438804        0.04699388        1.19000000        1.15532993
    11.51270344       58.97155008        0.19610823        0.04591413        1.19000000        1.15470315
    11.57063550       59.00437445        0.19781434        0.04484153        1.19000000        1.15407703
    11.62785953       59.03719881        0.19950677        0.04377587        1.19000000        1.15345159
    11.68439605       59.07002318        0.20118590        0.04271693        1.19000000        1.15282681
    11.74026461       59.10284755        0.20285208        0.04166454        1.19000000        1.15220270
    11.79548385       59.13567192        0.20450567        0.04061849        1.19000000        1.15157926
    11.85007158       59.16849629        0.20614698        0.03957862        1.19000000        1.15095649
    11.90404478       59.20132066        0.20777634        0.03854474        1.19000000        1.15033439
    11.95741969       59.23414502        0.20939405        0.03751669        1.19000000        1.14971295
    12.01021185       59.26696939        0.21100040        0.03649432        1.19000000        1.14909218
    12.06243612       59.29979376        0.21259566        0.03547747        1.19000000        1.14847207
    12.11410675       59.33261813        0.21418010        0.03446601        1.19000000        1.14785263
    12.16523737       59.36544250        0.21575398        0.03345978        1.19000000        1.14723385
    12.21584108       59.39826687        0.21731754        0.03245867        1.19000000        1.14661573
    12.26593043       59.43109123        0.21887102        0.03146253        1.19000000        1.14599828
    12.31551750       59.46391560        0.22041465        0.03047125        1.19000000        1.14538149
    12.36461384       59.49673997        0.22194864        0.02948471        1.19000000        1.14476536
    12.41323063       59.52956434        0.22347320        0.02850279        1.19000000        1.14414990
    12.46137854       59.56238871        0.22498854        0.02752539        1.19000000        1.14353509
    12.50906791       59.59521308        0.22649485        0.02655239        1.19000000        1.14292095
    12.55630865       59.62803745        0.22799233        0.02558370        1.19000000        1.14230746
    12.60311032       59.66086181        0.22948114        0.02461921        1.19000000        1.14169463
    12.64948215       59.69368618        0.23096147        0.02365884        1.19000000        1.14108247
    12.69543301       59.72651055        0.23243349        0.02270248        1.19000000        1.14047096
    12.74097149       59.75933492        0.23389737        0.02175006        1.19000000        1.13986010
    12.78610584       59.79215929        0.23535324        0.02080148        1.19000000        1.13924991
    12.83084408       59.82498366        0.23680128        0.01985666        1.19000000        1.13864037
    12.87519391       59.85780802        0.23824163        0.01891553        1.19000000        1.13803148
    12.91916279       59.89063239        0.23967443        0.01797800        1.19000000        1.13742326
    12.96275793       59.92345676        0.24109983        0.01704400        1.19000000        1.13681568
    13.00598631       59.95628113        0.24251794        0.01611346        1.19000000        1.13620876
    13.04885467       59.98910550        0.24392891        0.01518631        1.19000000        1.13560250
    13.09136955       60.02192987        0.24533286        0.01426247        1.19000000        1.13499689
    13.13353728       60.05475423        0.24672992        0.01334189        1.19000000        1.13439193
    13.17536397       60.08757860        0.24812019        0.01242450        1.19000000        1.13378762
    13.21685557       60.12040297        0.24950380        0.01151023        1.19000000        1.13318397
    13.25801783       60.15322734        0.25088086        0.01059903        1.19000000        1.13258097
    13.29885633       60.18605171        0.25225147        0.00969084        1.19000000        1.13197862
    13.33937649       60.21887608        0.25361574        0.00878560        1.19000000        1.13137691
    13.37958355       60.25170044        0.25497377        0.00788326        1.19000000        1.13077586
    13.41948261       60.28452481        0.25632566        0.00698376        1.19000000        1.13017546
    13.45907863       60.31734918        0.25767151        0.00608705        1.19000000        1.12957571
    13.49837641       60.35017355        0.25901141        0.00519309        1.19000000        1.12897660
    13.53738062       60.38299792        0.26034545        0.00430181        1.19000000        1.12837815
    13.57609579       60.41582229        0.26167372        0.00341318        1.19000000        1.12778034
    13.61452634       60.44864665        0.26299631        0.00252715        1.19000000        1.12718318
    13.65267655       60.48147102        0.26431329        0.00164367        1.19000000        1.12658666
    13.69055061       60.51429539        0.26562476        0.00076269        1.19000000        1.12599079
    13.72815255       60.54711976        0.26693078       -0.00011581        1.19000000        1.12539557
    13.76548634       60.57994413        0.26823145       -0.00099189        1.19000000        1.12480099
    13.80255582       60.61276850        0.26952683       -0.00186559        1.19000000        1.12420706
    13.83936472       60.64559286        0.27081699       -0.00273694        1.19000000        1.12361377
    13.87591670       60.67841723        0.27210201       -0.00360599        1.19000000        1.12302113
    13.91221529       60.71124160        0.27338196       -0.00447277        1.19000000        1.12242913
    13.94826397       60.74406597        0.27465690       -0.00533732        1.19000000        1.12183777
    13.98406609       60.77689034        0.27592691       -0.00619966        1.19000000        1.12124706
    14.01962494       60.80971471        0.27719204       -0.00705985        1.19000000        1.12065698
    14.05494374       60.84253907        0.27845236       -0.00791791        1.19000000        1.12006755
    14.09002558       60.87536344        0.27970793       -0.00877387        1.19000000        1.11947876
    14.12487354       60.90818781        0.28095881       -0.00962777        1.19000000        1.11889062
    14.15949056       60.94101218        0.28220507       -0.01047964        1.19000000        1.11830311
    14.19387956       60.97383655        0.28344674       -0.01132950        1.19000000        1.11771624
    14.22804337       61.00666092        0.28468391       -0.01217739        1.19000000        1.11713001
    14.26198473       61.03948529        0.28591660       -0.01302334        1.19000000        1.11654443
    14.29570637       61.07230965        0.28714489       -0.01386738        1.19000000        1.11595948
    14.32921089       61.10513402        0.28836882       -0.01470953        1.19000000        1.11537517
    14.36250089       61.13795839        0.28958845       -0.01554982        1.19000000        1.11479149
    14.39557886       61.17078276        0.29080381       -0.01638828        1.19000000        1.11420846
    14.42844727       61.20360713        0.29201497       -0.01722493        1.19000000        1.11362606
    14.46110852       61.23643150        0.29322197       -0.01805980        1.19000000        1.11304430
    14.49356495       61.26925586        0.29442485       -0.01889291        1.19000000        1.11246318
    14.52581885       61.30208023        0.29562366       -0.01972429        1.19000000        1.11188269
    14.55787246       61.33490460        0.29681845       -0.02055396        1.19000000        1.11130284
    14.58972798       61.36772897        0.29800926       -0.02138194        1.19000000        1.11072363
    14.62138756       61.40055334        0.29919613       -0.02220826        1.19000000        1.11014505
    14.65285329       61.43337771        0.30037911       -0.02303293        1.19000000        1.10956710
    14.68412720       61.46620207        0.30155823       -0.02385599        1.19000000        1.10898979
    14.71521133       61.49902644        0.30273353       -0.02467745        1.19000000        1.10841312
    14.74610764       61.53185081        0.30390505       -0.02549732        1.19000000        1.10783707
    14.77681803       61.56467518        0.30507284       -0.02631564        1.19000000        1.10726166
    14.80734441       61.59749955        0.30623692       -0.02713242        1.19000000        1.10668689
    14.83768861       61.63032392        0.30739735       -0.02794768        1.19000000        1.10611274
    14.86785244       61.66314828        0.30855414       -0.02876144        1.19000000        1.10553923
    14.89783767       61.69597265        0.30970734       -0.02957372        1.19000000        1.10496635
    14.92764602       61.72879702        0.31085698       -0.03038453        1.19000000        1.10439410
    14.95727921       61.76162139        0.31200309       -0.03119390        1.19000000        1.10382249
    14.98673888       61.79444576        0.31314572       -0.03200184        1.19000000        1.10325150
    15.01602667       61.82727013        0.31428488       -0.03280836        1.19000000        1.10268115
    15.04514417       61.86009449        0.31542062       -0.03361349        1.19000000        1.10211142
    15.07409295       61.89291886        0.31655296       -0.03441724        1.19000000        1.10154233
    15.10287455       61.92574323        0.31768194       -0.03521962        1.19000000        1.10097386
    15.13149046       61.95856760        0.31880757       -0.03602066        1.19000000        1.10040603
    15.15994217       61.99139197        0.31992991       -0.03682037        1.19000000        1.09983882
    15.18823111       62.02421634        0.32104896       -0.03761875        1.19000000        1.09927224
    15.21635872       62.05704070        0.32216477       -0.03841584        1.19000000        1.09870629
    15.24432637       62.08986507        0.32327736       -0.03921163        1.19000000        1.09814097
    15.27213543       62.12268944        0.32438675       -0.04000615        1.19000000        1.09757628
    15.29978725       62.15551381        0.32549298       -0.04079941        1.19000000        1.09701221
    15.32728313       62.18833818        0.32659606       -0.04159142        1.19000000        1.09644877
    15.35462437       62.22116255        0.32769603       -0.04238219        1.19000000        1.09588596
    15.38181223       62.25398692        0.32879291       -0.04317175        1.19000000        1.09532377
    15.40884795       62.28681128        0.32988672       -0.04396009        1.19000000        1.09476221
    15.43573275       62.31963565        0.33097750       -0.04474724        1.19000000        1.09420128
    15.46246783       62.35246002        0.33206526       -0.04553320        1.19000000        1.09364097
    15.48905438       62.38528439        0.33315002       -0.04631799        1.19000000        1.09308129
    15.51549352       62.41810876        0.33423181       -0.04710163        1.19000000        1.09252223
    15.54178641       62.45093313        0.33531066       -0.04788411        1.19000000        1.09196380
    15.56793415       62.48375749        0.33638658       -0.04866545        1.19000000        1.09140599
    15.59393784       62.51658186        0.33745960       -0.04944567        1.19000000        1.09084881
    15.61979855       62.54940623        0.33852974       -0.05022477        1.19000000        1.09029225
    15.64551733       62.58223060        0.33959701       -0.05100276        1.19000000        1.08973631
    15.67109522       62.61505497        0.34066145       -0.05177966        1.19000000        1.08918100
    15.69653325       62.64787934        0.34172306       -0.05255547        1.19000000        1.08862631
    15.72183240       62.68070370        0.34278188       -0.05333021        1.19000000        1.08807224
    15.74699368       62.71352807        0.34383792       -0.05410388        1.19000000        1.08751880
    15.77201802       62.74635244        0.34489119       -0.05487650        1.19000000        1.08696598
    15.79690640       62.77917681        0.34594173       -0.05564807        1.19000000        1.08641378
    15.82165974       62.81200118        0.34698954       -0.05641860        1.19000000        1.08586220
    15.84627896       62.84482555        0.34803464       -0.05718811        1.19000000        1.08531125
    15.87076496       62.87764991        0.34907706       -0.05795659        1.19000000        1.08476091
    15.89511864       62.91047428        0.35011682       -0.05872406        1.19000000        1.08421120
    15.91934085       62.94329865        0.35115391       -0.05949053        1.19000000        1.08366211
    15.94343247       62.97612302        0.35218838       -0.06025601        1.19000000        1.08311364
    15.96739433       63.00894739        0.35322023       -0.06102050        1.19000000        1.08256578
    15.99122727       63.04177176        0.35424948       -0.06178402        1.19000000        1.08201855
    16.01493209       63.07459612        0.35527614       -0.06254656        1.19000000        1.08147194
