#  Theta paroi en deg Angle Choc en deg       Kp           Inverse Mach       Mach amont       Mach aval
     0.00000000       32.13492800        0.00000000        0.46808511        1.88000000
     2.05172247       32.13666396        0.00793265        0.46449272        1.88000000        1.87992702
     2.45330223       32.13909286        0.01073397        0.46322816        1.88000000        1.87982491
     2.89496636       32.14360062        0.01417374        0.46167819        1.88000000        1.87963543
     3.37612817       32.15157314        0.01831669        0.45981534        1.88000000        1.87930042
     3.87485331       32.16439633        0.02301585        0.45770752        1.88000000        1.87876183
     4.37779767       32.18345608        0.02814602        0.45541236        1.88000000        1.87796184
     4.87925474       32.21013831        0.03363067        0.45296527        1.88000000        1.87684306
     5.37758156       32.24582891        0.03942925        0.45038530        1.88000000        1.87534859
     5.87305841       32.29191380        0.04552458        0.44768089        1.88000000        1.87342232
     6.36683189       32.34977887        0.05191454        0.44485374        1.88000000        1.87100912
     6.77578024       32.40764395        0.05743826        0.44241609        1.88000000        1.86860195
     7.12962554       32.46550902        0.06238299        0.44023865        1.88000000        1.86620074
     7.44443554       32.52337409        0.06690884        0.43824937        1.88000000        1.86380547
     7.72996275       32.58123916        0.07111533        0.43640352        1.88000000        1.86141606
     7.99260819       32.63910423        0.07506905        0.43467115        1.88000000        1.85903248
     8.23681811       32.69696931        0.07881702        0.43303113        1.88000000        1.85665468
     8.46581675       32.75483438        0.08239384        0.43146793        1.88000000        1.85428260
     8.68202272       32.81269945        0.08582576        0.42996974        1.88000000        1.85191621
     8.88730052       32.87056452        0.08913324        0.42852738        1.88000000        1.84955545
     9.08312036       32.92842959        0.09233258        0.42713352        1.88000000        1.84720028
     9.27066365       32.98629467        0.09543697        0.42578224        1.88000000        1.84485065
     9.45089519       33.04415974        0.09845730        0.42446865        1.88000000        1.84250651
     9.62461391       33.10202481        0.10140262        0.42318867        1.88000000        1.84016783
     9.79248943       33.15988988        0.10428058        0.42193888        1.88000000        1.83783456
     9.95508903       33.21775495        0.10709770        0.42071633        1.88000000        1.83550664
    10.11289778       33.27562003        0.10985957        0.41951852        1.88000000        1.83318405
    10.26633402       33.33348510        0.11257105        0.41834325        1.88000000        1.83086674
    10.41576126       33.39135017        0.11523638        0.41718861        1.88000000        1.82855465
    10.56149748       33.44921524        0.11785928        0.41605294        1.88000000        1.82624776
    10.70382261       33.50708031        0.12044304        0.41493474        1.88000000        1.82394603
    10.84298445       33.56494539        0.12299058        0.41383269        1.88000000        1.82164940
    10.97920353       33.62281046        0.12550452        0.41274563        1.88000000        1.81935784
    11.11267695       33.68067553        0.12798720        0.41167248        1.88000000        1.81707131
    11.24358175       33.73854060        0.13044071        0.41061230        1.88000000        1.81478976
    11.37207754       33.79640567        0.13286697        0.40956422        1.88000000        1.81251317
    11.49830873       33.85427075        0.13526771        0.40852747        1.88000000        1.81024149
    11.62240649       33.91213582        0.13764450        0.40750132        1.88000000        1.80797468
    11.74449033       33.97000089        0.13999876        0.40648512        1.88000000        1.80571270
    11.86466942       34.02786596        0.14233183        0.40547828        1.88000000        1.80345552
    11.98304387       34.08573103        0.14464490        0.40448025        1.88000000        1.80120310
    12.09970561       34.14359611        0.14693908        0.40349052        1.88000000        1.79895540
    12.21473938       34.20146118        0.14921540        0.40250862        1.88000000        1.79671239
    12.32822337       34.25932625        0.15147481        0.40153411        1.88000000        1.79447402
    12.44022999       34.31719132        0.15371818        0.40056661        1.88000000        1.79224027
    12.55082636       34.37505639        0.15594633        0.39960572        1.88000000        1.79001110
    12.66007486       34.43292147        0.15816001        0.39865111        1.88000000        1.78778647
    12.76803356       34.49078654        0.16035994        0.39770245        1.88000000        1.78556636
    12.87475663       34.54865161        0.16254676        0.39675943        1.88000000        1.78335071
    12.98029467       34.60651668        0.16472110        0.39582177        1.88000000        1.78113951
    13.08469503       34.66438175        0.16688353        0.39488920        1.88000000        1.77893271
    13.18800209       34.72224683        0.16903459        0.39396147        1.88000000        1.77673029
    13.29025750       34.78011190        0.17117479        0.39303835        1.88000000        1.77453221
    13.39150042       34.83797697        0.17330460        0.39211961        1.88000000        1.77233844
    13.49176770       34.89584204        0.17542448        0.39120504        1.88000000        1.77014895
    13.59109406       34.95370711        0.17753484        0.39029444        1.88000000        1.76796370
    13.68951227       35.01157219        0.17963609        0.38938762        1.88000000        1.76578266
    13.78705330       35.06943726        0.18172859        0.38848442        1.88000000        1.76360581
    13.88374641       35.12730233        0.18381271        0.38758465        1.88000000        1.76143311
    13.97961933       35.18516740        0.18588879        0.38668816        1.88000000        1.75926453
    14.07469832       35.24303247        0.18795714        0.38579480        1.88000000        1.75710004
    14.16900831       35.30089755        0.19001806        0.38490442        1.88000000        1.75493961
    14.26257298       35.35876262        0.19207185        0.38401689        1.88000000        1.75278322
    14.35541482       35.41662769        0.19411877        0.38313206        1.88000000        1.75063083
    14.44755524       35.47449276        0.19615908        0.38224983        1.88000000        1.74848241
    14.53901464       35.53235783        0.19819303        0.38137006        1.88000000        1.74633793
    14.62981242       35.59022291        0.20022086        0.38049265        1.88000000        1.74419738
    14.71996713       35.64808798        0.20224278        0.37961748        1.88000000        1.74206071
    14.80949646       35.70595305        0.20425902        0.37874446        1.88000000        1.73992790
    14.89841729       35.76381812        0.20626976        0.37787347        1.88000000        1.73779893
    14.98674579       35.82168319        0.20827522        0.37700443        1.88000000        1.73567376
    15.07449740       35.87954827        0.21027557        0.37613725        1.88000000        1.73355237
    15.16168693       35.93741334        0.21227098        0.37527182        1.88000000        1.73143474
    15.24832853       35.99527841        0.21426164        0.37440808        1.88000000        1.72932083
    15.33443581       36.05314348        0.21624769        0.37354593        1.88000000        1.72721062
    15.42002176       36.11100855        0.21822931        0.37268530        1.88000000        1.72510409
    15.50509893       36.16887363        0.22020662        0.37182612        1.88000000        1.72300121
    15.58967930       36.22673870        0.22217978        0.37096831        1.88000000        1.72090195
    15.67377442       36.28460377        0.22414893        0.37011180        1.88000000        1.71880629
    15.75739536       36.34246884        0.22611419        0.36925652        1.88000000        1.71671420
    15.84055283       36.40033391        0.22807568        0.36840241        1.88000000        1.71462567
    15.92325706       36.45819899        0.23003354        0.36754941        1.88000000        1.71254066
    16.00551796       36.51606406        0.23198787        0.36669745        1.88000000        1.71045915
    16.08734504       36.57392913        0.23393879        0.36584647        1.88000000        1.70838112
    16.16874748       36.63179420        0.23588640        0.36499643        1.88000000        1.70630654
    16.24973416       36.68965927        0.23783081        0.36414725        1.88000000        1.70423539
    16.33031359       36.74752435        0.23977211        0.36329890        1.88000000        1.70216765
    16.41049403       36.80538942        0.24171040        0.36245132        1.88000000        1.70010330
    16.49028342       36.86325449        0.24364578        0.36160446        1.88000000        1.69804231
    16.56968948       36.92111956        0.24557832        0.36075826        1.88000000        1.69598466
    16.64871960       36.97898463        0.24750812        0.35991269        1.88000000        1.69393032
    16.72738099       37.03684970        0.24943525        0.35906770        1.88000000        1.69187929
    16.80568058       37.09471478        0.25135980        0.35822324        1.88000000        1.68983152
    16.88362511       37.15257985        0.25328185        0.35737928        1.88000000        1.68778701
    16.96122107       37.21044492        0.25520145        0.35653576        1.88000000        1.68574573
    17.03847475       37.26830999        0.25711869        0.35569265        1.88000000        1.68370767
    17.11539227       37.32617506        0.25903364        0.35484991        1.88000000        1.68167279
    17.19197952       37.38404014        0.26094635        0.35400750        1.88000000        1.67964108
    17.26824225       37.44190521        0.26285689        0.35316538        1.88000000        1.67761252
    17.34418599       37.49977028        0.26476533        0.35232352        1.88000000        1.67558709
    17.41981613       37.55763535        0.26667173        0.35148189        1.88000000        1.67356476
    17.49513791       37.61550042        0.26857613        0.35064043        1.88000000        1.67154553
    17.57015638       37.67336550        0.27047860        0.34979914        1.88000000        1.66952936
    17.64487648       37.73123057        0.27237919        0.34895796        1.88000000        1.66751625
    17.71930298       37.78909564        0.27427795        0.34811687        1.88000000        1.66550616
    17.79344053       37.84696071        0.27617493        0.34727584        1.88000000        1.66349909
    17.86729363       37.90482578        0.27807018        0.34643484        1.88000000        1.66149501
    17.94086667       37.96269086        0.27996375        0.34559383        1.88000000        1.65949390
    18.01416390       38.02055593        0.28185567        0.34475280        1.88000000        1.65749575
    18.08718948       38.07842100        0.28374600        0.34391170        1.88000000        1.65550053
    18.15994743       38.13628607        0.28563478        0.34307051        1.88000000        1.65350824
    18.23244167       38.19415114        0.28752204        0.34222921        1.88000000        1.65151884
    18.30467602       38.25201622        0.28940783        0.34138777        1.88000000        1.64953233
    18.37665419       38.30988129        0.29129219        0.34054616        1.88000000        1.64754868
    18.44837979       38.36774636        0.29317515        0.33970436        1.88000000        1.64556789
    18.51985634       38.42561143        0.29505674        0.33886234        1.88000000        1.64358992
    18.59108728       38.48347650        0.29693701        0.33802007        1.88000000        1.64161477
    18.66207594       38.54134158        0.29881599        0.33717755        1.88000000        1.63964241
    18.73282558       38.59920665        0.30069370        0.33633473        1.88000000        1.63767284
    18.80333937       38.65707172        0.30257019        0.33549160        1.88000000        1.63570603
    18.87362040       38.71493679        0.30444547        0.33464814        1.88000000        1.63374197
    18.94367169       38.77280186        0.30631958        0.33380432        1.88000000        1.63178064
    19.01349618       38.83066694        0.30819256        0.33296012        1.88000000        1.62982202
    19.08309673       38.88853201        0.31006442        0.33211552        1.88000000        1.62786610
    19.15247615       38.94639708        0.31193519        0.33127050        1.88000000        1.62591287
    19.22163716       39.00426215        0.31380490        0.33042504        1.88000000        1.62396230
    19.29058244       39.06212722        0.31567358        0.32957913        1.88000000        1.62201439
    19.35931457       39.11999230        0.31754124        0.32873273        1.88000000        1.62006911
    19.42783610       39.17785737        0.31940792        0.32788583        1.88000000        1.61812646
    19.49614952       39.23572244        0.32127363        0.32703841        1.88000000        1.61618641
    19.56425724       39.29358751        0.32313839        0.32619046        1.88000000        1.61424896
    19.63216163       39.35145258        0.32500224        0.32534195        1.88000000        1.61231408
    19.69986501       39.40931766        0.32686518        0.32449286        1.88000000        1.61038177
    19.76736962       39.46718273        0.32872725        0.32364319        1.88000000        1.60845200
    19.83467768       39.52504780        0.33058845        0.32279290        1.88000000        1.60652477
    19.90179134       39.58291287        0.33244881        0.32194199        1.88000000        1.60460006
    19.96871272       39.64077794        0.33430834        0.32109044        1.88000000        1.60267786
    20.03544389       39.69864302        0.33616707        0.32023823        1.88000000        1.60075814
    20.10198684       39.75650809        0.33802501        0.31938534        1.88000000        1.59884091
    20.16834356       39.81437316        0.33988218        0.31853176        1.88000000        1.59692614
    20.23451598       39.87223823        0.34173858        0.31767747        1.88000000        1.59501382
    20.30050599       39.93010330        0.34359425        0.31682245        1.88000000        1.59310394
    20.36631542       39.98796838        0.34544919        0.31596670        1.88000000        1.59119649
    20.43194609       40.04583345        0.34730341        0.31511019        1.88000000        1.58929145
    20.49739977       40.10369852        0.34915694        0.31425291        1.88000000        1.58738880
    20.56267819       40.16156359        0.35100978        0.31339485        1.88000000        1.58548854
    20.62778304       40.21942866        0.35286195        0.31253599        1.88000000        1.58359066
    20.69271598       40.27729374        0.35471347        0.31167631        1.88000000        1.58169513
    20.75747864       40.33515881        0.35656433        0.31081581        1.88000000        1.57980196
    20.82207260       40.39302388        0.35841456        0.30995446        1.88000000        1.57791112
    20.88649944       40.45088895        0.36026417        0.30909226        1.88000000        1.57602260
    20.95076066       40.50875402        0.36211316        0.30822918        1.88000000        1.57413640
    21.01485777       40.56661910        0.36396155        0.30736523        1.88000000        1.57225249
    21.07879223       40.62448417        0.36580935        0.30650038        1.88000000        1.57037087
    21.14256548       40.68234924        0.36765657        0.30563461        1.88000000        1.56849153
    21.20617892       40.74021431        0.36950321        0.30476793        1.88000000        1.56661446
    21.26963393       40.79807938        0.37134929        0.30390030        1.88000000        1.56473963
    21.33293186       40.85594446        0.37319482        0.30303173        1.88000000        1.56286705
    21.39607404       40.91380953        0.37503980        0.30216220        1.88000000        1.56099670
    21.45906176       40.97167460        0.37688425        0.30129169        1.88000000        1.55912857
    21.52189629       41.02953967        0.37872816        0.30042020        1.88000000        1.55726264
    21.58457889       41.08740474        0.38057155        0.29954771        1.88000000        1.55539892
    21.64711077       41.14526982        0.38241443        0.29867420        1.88000000        1.55353737
    21.70949314       41.20313489        0.38425680        0.29779968        1.88000000        1.55167801
    21.77172716       41.26099996        0.38609867        0.29692411        1.88000000        1.54982081
    21.83381400       41.31886503        0.38794005        0.29604751        1.88000000        1.54796576
    21.89575478       41.37673010        0.38978093        0.29516984        1.88000000        1.54611286
    21.95755063       41.43459518        0.39162134        0.29429110        1.88000000        1.54426209
    22.01920262       41.49246025        0.39346127        0.29341129        1.88000000        1.54241344
    22.08071182       41.55032532        0.39530072        0.29253038        1.88000000        1.54056690
    22.14207927       41.60819039        0.39713971        0.29164836        1.88000000        1.53872247
    22.20330602       41.66605546        0.39897825        0.29076524        1.88000000        1.53688014
    22.26439307       41.72392054        0.40081632        0.28988098        1.88000000        1.53503988
    22.32534141       41.78178561        0.40265394        0.28899559        1.88000000        1.53320170
    22.38615200       41.83965068        0.40449112        0.28810905        1.88000000        1.53136558
    22.44682581       41.89751575        0.40632785        0.28722135        1.88000000        1.52953152
    22.50736376       41.95538082        0.40816415        0.28633249        1.88000000        1.52769950
    22.56776680       42.01324590        0.41000001        0.28544244        1.88000000        1.52586952
    22.62803579       42.07111097        0.41183543        0.28455121        1.88000000        1.52404156
    22.68817165       42.12897604        0.41367043        0.28365877        1.88000000        1.52221562
    22.74817523       42.18684111        0.41550500        0.28276512        1.88000000        1.52039169
    22.80804739       42.24470618        0.41733915        0.28187025        1.88000000        1.51856975
    22.86778896       42.30257126        0.41917288        0.28097415        1.88000000        1.51674981
    22.92740077       42.36043633        0.42100620        0.28007681        1.88000000        1.51493184
    22.98688364       42.41830140        0.42283909        0.27917822        1.88000000        1.51311585
    23.04623834       42.47616647        0.42467158        0.27827836        1.88000000        1.51130183
    23.10546566       42.53403154        0.42650365        0.27737724        1.88000000        1.50948975
