#  Theta paroi en deg Angle Choc en deg       Kp           Inverse Mach       Mach amont       Mach aval
     0.00000000       49.25094562        0.00000000        0.24242424        1.32000000
     2.18086482       49.25216809        0.01049135        0.23705245        1.32000000        1.31996870
     2.52056470       49.25387855        0.01347915        0.23551781        1.32000000        1.31992491
     2.92570284       49.25705295        0.01742125        0.23348969        1.32000000        1.31984364
     3.38585111       49.26266726        0.02236844        0.23093903        1.32000000        1.31969993
     3.87293196       49.27169746        0.02811721        0.22796735        1.32000000        1.31946883
     4.36896288       49.28511949        0.03448240        0.22466714        1.32000000        1.31912546
     4.86515326       49.30390933        0.04133901        0.22110025        1.32000000        1.31864500
     5.35778015       49.32904295        0.04860859        0.21730477        1.32000000        1.31800277
     5.84561390       49.36149630        0.05624307        0.21330316        1.32000000        1.31717424
     6.32861406       49.40224535        0.06421390        0.20910774        1.32000000        1.31613509
     6.72554714       49.44299441        0.07106224        0.20548853        1.32000000        1.31509724
     7.06634209       49.48374346        0.07715137        0.20225895        1.32000000        1.31406069
     7.36724764       49.52449252        0.08268567        0.19931399        1.32000000        1.31302544
     7.63815717       49.56524157        0.08779310        0.19658789        1.32000000        1.31199147
     7.88558032       49.60599062        0.09255986        0.19403632        1.32000000        1.31095880
     8.11404788       49.64673968        0.09704713        0.19162783        1.32000000        1.30992741
     8.32685111       49.68748873        0.10130015        0.18933915        1.32000000        1.30889730
     8.52646248       49.72823779        0.10535339        0.18715254        1.32000000        1.30786847
     8.71479055       49.76898684        0.10923384        0.18505410        1.32000000        1.30684092
     8.89334201       49.80973590        0.11296309        0.18303275        1.32000000        1.30581464
     9.06332882       49.85048495        0.11655866        0.18107944        1.32000000        1.30478962
     9.22574171       49.89123400        0.12003505        0.17918672        1.32000000        1.30376587
     9.38140177       49.93198306        0.12340439        0.17734835        1.32000000        1.30274338
     9.53099775       49.97273211        0.12667692        0.17555905        1.32000000        1.30172215
     9.67511359       50.01348117        0.12986143        0.17381429        1.32000000        1.30070218
     9.81424896       50.05423022        0.13296547        0.17211019        1.32000000        1.29968346
     9.94883508       50.09497928        0.13599561        0.17044335        1.32000000        1.29866598
    10.07924685       50.13572833        0.13895761        0.16881083        1.32000000        1.29764976
    10.20581245       50.17647739        0.14185652        0.16721000        1.32000000        1.29663477
    10.32882095       50.21722644        0.14469685        0.16563855        1.32000000        1.29562103
    10.44852836       50.25797549        0.14748258        0.16409442        1.32000000        1.29460852
    10.56516264       50.29872455        0.15021730        0.16257577        1.32000000        1.29359724
    10.67892765       50.33947360        0.15290423        0.16108094        1.32000000        1.29258720
    10.79000657       50.38022266        0.15554627        0.15960843        1.32000000        1.29157838
    10.89856463       50.42097171        0.15814605        0.15815688        1.32000000        1.29057079
    11.00475140       50.46172077        0.16070598        0.15672506        1.32000000        1.28956441
    11.10870281       50.50246982        0.16322822        0.15531184        1.32000000        1.28855926
    11.21054271       50.54321887        0.16571478        0.15391619        1.32000000        1.28755532
    11.31038434       50.58396793        0.16816750        0.15253716        1.32000000        1.28655259
    11.40833154       50.62471698        0.17058807        0.15117389        1.32000000        1.28555108
    11.50447972       50.66546604        0.17297803        0.14982556        1.32000000        1.28455077
    11.59891689       50.70621509        0.17533884        0.14849144        1.32000000        1.28355166
    11.69172424       50.74696415        0.17767182        0.14717084        1.32000000        1.28255375
    11.78297701       50.78771320        0.17997822        0.14586311        1.32000000        1.28155704
    11.87274496       50.82846226        0.18225918        0.14456766        1.32000000        1.28056153
    11.96109297       50.86921131        0.18451579        0.14328394        1.32000000        1.27956721
    12.04808144       50.90996036        0.18674905        0.14201142        1.32000000        1.27857408
    12.13376672       50.95070942        0.18895990        0.14074963        1.32000000        1.27758213
    12.21820151       50.99145847        0.19114921        0.13949809        1.32000000        1.27659137
    12.30143508       51.03220753        0.19331781        0.13825640        1.32000000        1.27560179
    12.38351368       51.07295658        0.19546649        0.13702414        1.32000000        1.27461339
    12.46448070       51.11370564        0.19759597        0.13580094        1.32000000        1.27362616
    12.54437694       51.15445469        0.19970693        0.13458645        1.32000000        1.27264010
    12.62324084       51.19520374        0.20180004        0.13338031        1.32000000        1.27165522
    12.70110861       51.23595280        0.20387590        0.13218223        1.32000000        1.27067150
    12.77801444       51.27670185        0.20593509        0.13099189        1.32000000        1.26968895
    12.85399062       51.31745091        0.20797817        0.12980901        1.32000000        1.26870756
    12.92906772       51.35819996        0.21000565        0.12863333        1.32000000        1.26772733
    13.00327469       51.39894902        0.21201803        0.12746458        1.32000000        1.26674826
    13.07663896       51.43969807        0.21401578        0.12630252        1.32000000        1.26577034
    13.14918659       51.48044713        0.21599934        0.12514692        1.32000000        1.26479357
    13.22094231       51.52119618        0.21796915        0.12399756        1.32000000        1.26381796
    13.29192963       51.56194523        0.21992559        0.12285423        1.32000000        1.26284348
    13.36217096       51.60269429        0.22186907        0.12171673        1.32000000        1.26187016
    13.43168760       51.64344334        0.22379994        0.12058487        1.32000000        1.26089797
    13.50049989       51.68419240        0.22571857        0.11945847        1.32000000        1.25992693
    13.56862722       51.72494145        0.22762527        0.11833734        1.32000000        1.25895702
    13.63608810       51.76569051        0.22952039        0.11722133        1.32000000        1.25798824
    13.70290024       51.80643956        0.23140421        0.11611027        1.32000000        1.25702060
    13.76908053       51.84718861        0.23327704        0.11500401        1.32000000        1.25605409
    13.83464519       51.88793767        0.23513916        0.11390240        1.32000000        1.25508870
    13.89960971       51.92868672        0.23699083        0.11280531        1.32000000        1.25412444
    13.96398894       51.96943578        0.23883232        0.11171260        1.32000000        1.25316130
    14.02779713       52.01018483        0.24066388        0.11062413        1.32000000        1.25219928
    14.09104793       52.05093389        0.24248573        0.10953979        1.32000000        1.25123837
    14.15375447       52.09168294        0.24429812        0.10845946        1.32000000        1.25027859
    14.21592935       52.13243200        0.24610127        0.10738301        1.32000000        1.24931991
    14.27758466       52.17318105        0.24789538        0.10631033        1.32000000        1.24836235
    14.33873206       52.21393010        0.24968066        0.10524133        1.32000000        1.24740589
    14.39938276       52.25467916        0.25145730        0.10417590        1.32000000        1.24645054
    14.45954752       52.29542821        0.25322551        0.10311393        1.32000000        1.24549629
    14.51923674       52.33617727        0.25498545        0.10205534        1.32000000        1.24454315
    14.57846043       52.37692632        0.25673730        0.10100002        1.32000000        1.24359110
    14.63722824       52.41767538        0.25848124        0.09994790        1.32000000        1.24264015
    14.69554945       52.45842443        0.26021743        0.09889888        1.32000000        1.24169030
    14.75343307       52.49917348        0.26194602        0.09785288        1.32000000        1.24074153
    14.81088775       52.53992254        0.26366718        0.09680982        1.32000000        1.23979386
    14.86792187       52.58067159        0.26538104        0.09576963        1.32000000        1.23884728
    14.92454351       52.62142065        0.26708775        0.09473222        1.32000000        1.23790178
    14.98076049       52.66216970        0.26878745        0.09369752        1.32000000        1.23695737
    15.03658037       52.70291876        0.27048028        0.09266547        1.32000000        1.23601404
    15.09201046       52.74366781        0.27216636        0.09163600        1.32000000        1.23507178
    15.14705784       52.78441687        0.27384581        0.09060903        1.32000000        1.23413061
    15.20172935       52.82516592        0.27551876        0.08958451        1.32000000        1.23319051
    15.25603162       52.86591497        0.27718533        0.08856237        1.32000000        1.23225149
    15.30997110       52.90666403        0.27884563        0.08754255        1.32000000        1.23131353
    15.36355399       52.94741308        0.28049977        0.08652500        1.32000000        1.23037665
    15.41678634       52.98816214        0.28214786        0.08550965        1.32000000        1.22944083
    15.46967400       53.02891119        0.28379000        0.08449646        1.32000000        1.22850608
    15.52222265       53.06966025        0.28542629        0.08348536        1.32000000        1.22757239
    15.57443779       53.11040930        0.28705683        0.08247630        1.32000000        1.22663976
    15.62632478       53.15115835        0.28868172        0.08146925        1.32000000        1.22570819
    15.67788880       53.19190741        0.29030104        0.08046413        1.32000000        1.22477768
    15.72913491       53.23265646        0.29191490        0.07946092        1.32000000        1.22384822
    15.78006799       53.27340552        0.29352337        0.07845956        1.32000000        1.22291982
    15.83069281       53.31415457        0.29512654        0.07746000        1.32000000        1.22199247
    15.88101399       53.35490363        0.29672448        0.07646221        1.32000000        1.22106617
    15.93103603       53.39565268        0.29831730        0.07546613        1.32000000        1.22014092
    15.98076331       53.43640174        0.29990505        0.07447173        1.32000000        1.21921671
    16.03020008       53.47715079        0.30148781        0.07347897        1.32000000        1.21829355
    16.07935049       53.51789984        0.30306567        0.07248780        1.32000000        1.21737143
    16.12821856       53.55864890        0.30463869        0.07149820        1.32000000        1.21645035
    16.17680822       53.59939795        0.30620693        0.07051011        1.32000000        1.21553031
    16.22512328       53.64014701        0.30777048        0.06952351        1.32000000        1.21461130
    16.27316747       53.68089606        0.30932939        0.06853835        1.32000000        1.21369333
    16.32094442       53.72164512        0.31088373        0.06755461        1.32000000        1.21277639
    16.36845764       53.76239417        0.31243356        0.06657225        1.32000000        1.21186049
    16.41571060       53.80314322        0.31397895        0.06559123        1.32000000        1.21094561
    16.46270663       53.84389228        0.31551995        0.06461153        1.32000000        1.21003176
    16.50944902       53.88464133        0.31705662        0.06363311        1.32000000        1.20911894
    16.55594095       53.92539039        0.31858902        0.06265595        1.32000000        1.20820714
    16.60218553       53.96613944        0.32011721        0.06168000        1.32000000        1.20729637
    16.64818581       54.00688850        0.32164123        0.06070524        1.32000000        1.20638661
    16.69394473       54.04763755        0.32316114        0.05973165        1.32000000        1.20547788
    16.73946520       54.08838661        0.32467700        0.05875919        1.32000000        1.20457016
    16.78475003       54.12913566        0.32618884        0.05778784        1.32000000        1.20366346
    16.82980198       54.16988471        0.32769673        0.05681757        1.32000000        1.20275777
    16.87462374       54.21063377        0.32920071        0.05584836        1.32000000        1.20185309
    16.91921795       54.25138282        0.33070082        0.05488017        1.32000000        1.20094943
    16.96358716       54.29213188        0.33219712        0.05391299        1.32000000        1.20004677
    17.00773387       54.33288093        0.33368964        0.05294679        1.32000000        1.19914512
    17.05166055       54.37362999        0.33517843        0.05198154        1.32000000        1.19824448
    17.09536959       54.41437904        0.33666353        0.05101723        1.32000000        1.19734485
    17.13886333       54.45512810        0.33814499        0.05005382        1.32000000        1.19644621
    17.18214405       54.49587715        0.33962284        0.04909130        1.32000000        1.19554858
    17.22521400       54.53662620        0.34109713        0.04812964        1.32000000        1.19465195
    17.26807536       54.57737526        0.34256788        0.04716883        1.32000000        1.19375631
    17.31073027       54.61812431        0.34403515        0.04620884        1.32000000        1.19286167
    17.35318083       54.65887337        0.34549897        0.04524965        1.32000000        1.19196803
    17.39542908       54.69962242        0.34695937        0.04429124        1.32000000        1.19107538
    17.43747703       54.74037148        0.34841639        0.04333360        1.32000000        1.19018372
    17.47932664       54.78112053        0.34987007        0.04237669        1.32000000        1.18929306
    17.52097983       54.82186958        0.35132043        0.04142051        1.32000000        1.18840338
    17.56243848       54.86261864        0.35276751        0.04046503        1.32000000        1.18751469
    17.60370443       54.90336769        0.35421135        0.03951024        1.32000000        1.18662699
    17.64477947       54.94411675        0.35565198        0.03855612        1.32000000        1.18574027
    17.68566538       54.98486580        0.35708942        0.03760265        1.32000000        1.18485453
    17.72636388       55.02561486        0.35852371        0.03664981        1.32000000        1.18396978
    17.76687666       55.06636391        0.35995488        0.03569759        1.32000000        1.18308601
    17.80720537       55.10711297        0.36138295        0.03474597        1.32000000        1.18220321
    17.84735166       55.14786202        0.36280796        0.03379494        1.32000000        1.18132140
    17.88731710       55.18861107        0.36422994        0.03284447        1.32000000        1.18044056
    17.92710325       55.22936013        0.36564890        0.03189456        1.32000000        1.17956069
    17.96671164       55.27010918        0.36706488        0.03094518        1.32000000        1.17868180
    18.00614377       55.31085824        0.36847791        0.02999633        1.32000000        1.17780388
    18.04540110       55.35160729        0.36988800        0.02904799        1.32000000        1.17692694
    18.08448508       55.39235635        0.37129519        0.02810013        1.32000000        1.17605096
    18.12339713       55.43310540        0.37269950        0.02715276        1.32000000        1.17517595
    18.16213861       55.47385445        0.37410096        0.02620586        1.32000000        1.17430191
    18.20071088       55.51460351        0.37549958        0.02525941        1.32000000        1.17342883
    18.23911529       55.55535256        0.37689539        0.02431340        1.32000000        1.17255672
    18.27735313       55.59610162        0.37828842        0.02336781        1.32000000        1.17168557
    18.31542569       55.63685067        0.37967868        0.02242264        1.32000000        1.17081538
    18.35333421       55.67759973        0.38106620        0.02147786        1.32000000        1.16994615
    18.39107994       55.71834878        0.38245101        0.02053348        1.32000000        1.16907789
    18.42866407       55.75909784        0.38383311        0.01958947        1.32000000        1.16821058
    18.46608781       55.79984689        0.38521253        0.01864583        1.32000000        1.16734422
    18.50335230       55.84059594        0.38658930        0.01770253        1.32000000        1.16647883
    18.54045870       55.88134500        0.38796343        0.01675958        1.32000000        1.16561438
    18.57740813       55.92209405        0.38933494        0.01581696        1.32000000        1.16475089
    18.61420168       55.96284311        0.39070385        0.01487466        1.32000000        1.16388836
    18.65084044       56.00359216        0.39207018        0.01393266        1.32000000        1.16302677
    18.68732547       56.04434122        0.39343395        0.01299096        1.32000000        1.16216613
    18.72365781       56.08509027        0.39479517        0.01204955        1.32000000        1.16130645
    18.75983847       56.12583932        0.39615386        0.01110842        1.32000000        1.16044771
    18.79586848       56.16658838        0.39751005        0.01016755        1.32000000        1.15958991
    18.83174881       56.20733743        0.39886375        0.00922694        1.32000000        1.15873306
    18.86748043       56.24808649        0.40021497        0.00828657        1.32000000        1.15787716
    18.90306430       56.28883554        0.40156373        0.00734644        1.32000000        1.15702219
    18.93850133       56.32958460        0.40291004        0.00640654        1.32000000        1.15616817
    18.97379247       56.37033365        0.40425393        0.00546685        1.32000000        1.15531509
    19.00893860       56.41108271        0.40559541        0.00452738        1.32000000        1.15446295
    19.04394061       56.45183176        0.40693450        0.00358810        1.32000000        1.15361175
    19.07879937       56.49258081        0.40827120        0.00264902        1.32000000        1.15276149
    19.11351574       56.53332987        0.40960553        0.00171011        1.32000000        1.15191216
    19.14809055       56.57407892        0.41093751        0.00077138        1.32000000        1.15106377
