#  Theta paroi en deg Angle Choc en deg       Kp           Inverse Mach       Mach amont       Mach aval
     0.00000000       45.17147625        0.00000000        0.29078014        1.41000000
     2.19265750       45.17282110        0.01018630        0.28572366        1.41000000        1.40996146
     2.56348122       45.17470279        0.01332846        0.28416056        1.41000000        1.40990753
     2.99364256       45.17819499        0.01737684        0.28214426        1.41000000        1.40980745
     3.47500496       45.18437136        0.02238736        0.27964497        1.41000000        1.40963048
     3.98059904       45.19430559        0.02816164        0.27675935        1.41000000        1.40934592
     4.49345791       45.20907133        0.03452263        0.27357371        1.41000000        1.40892312
     5.00553477       45.22974226        0.04135303        0.27014476        1.41000000        1.40833157
     5.51363475       45.25739205        0.04858113        0.26650661        1.41000000        1.40754091
     6.01692382       45.29309437        0.05616488        0.26267852        1.41000000        1.40652101
     6.51567872       45.33792289        0.06408130        0.25867017        1.41000000        1.40524203
     6.92608700       45.38275142        0.07088559        0.25521455        1.41000000        1.40396487
     7.27894117       45.42757994        0.07693988        0.25213150        1.41000000        1.40268952
     7.59093696       45.47240847        0.08244738        0.24931993        1.41000000        1.40141597
     7.87223023       45.51723699        0.08753507        0.24671663        1.41000000        1.40014421
     8.12949835       45.56206551        0.09228835        0.24427910        1.41000000        1.39887424
     8.36738604       45.60689404        0.09676775        0.24197721        1.41000000        1.39760605
     8.58926554       45.65172256        0.10101794        0.23978870        1.41000000        1.39633963
     8.79766903       45.69655108        0.10507295        0.23769664        1.41000000        1.39507498
     8.99455047       45.74137961        0.10895940        0.23568777        1.41000000        1.39381209
     9.18145174       45.78620813        0.11269852        0.23375151        1.41000000        1.39255096
     9.35961281       45.83103666        0.11630759        0.23187926        1.41000000        1.39129157
     9.53004695       45.87586518        0.11980083        0.23006392        1.41000000        1.39003393
     9.69359376       45.92069370        0.12319017        0.22829956        1.41000000        1.38877802
     9.85095734       45.96552223        0.12648568        0.22658115        1.41000000        1.38752384
    10.00273445       46.01035075        0.12969594        0.22490442        1.41000000        1.38627138
    10.14943569       46.05517927        0.13282839        0.22326567        1.41000000        1.38502064
    10.29150158       46.10000780        0.13588944        0.22166170        1.41000000        1.38377161
    10.42931507       46.14483632        0.13888473        0.22008968        1.41000000        1.38252429
    10.56321131       46.18966485        0.14181922        0.21854715        1.41000000        1.38127867
    10.69348544       46.23449337        0.14469730        0.21703193        1.41000000        1.38003473
    10.82039886       46.27932189        0.14752287        0.21554206        1.41000000        1.37879249
    10.94418421       46.32415042        0.15029943        0.21407579        1.41000000        1.37755193
    11.06504958       46.36897894        0.15303012        0.21263157        1.41000000        1.37631304
    11.18318190       46.41380746        0.15571778        0.21120797        1.41000000        1.37507582
    11.29874972       46.45863599        0.15836496        0.20980371        1.41000000        1.37384027
    11.41190567       46.50346451        0.16097401        0.20841764        1.41000000        1.37260637
    11.52278835       46.54829304        0.16354705        0.20704868        1.41000000        1.37137412
    11.63152411       46.59312156        0.16608603        0.20569587        1.41000000        1.37014353
    11.73822844       46.63795008        0.16859273        0.20435830        1.41000000        1.36891457
    11.84300719       46.68277861        0.17106879        0.20303517        1.41000000        1.36768725
    11.94595768       46.72760713        0.17351573        0.20172571        1.41000000        1.36646156
    12.04716957       46.77243565        0.17593494        0.20042923        1.41000000        1.36523749
    12.14672566       46.81726418        0.17832772        0.19914507        1.41000000        1.36401504
    12.24470262       46.86209270        0.18069528        0.19787263        1.41000000        1.36279420
    12.34117156       46.90692123        0.18303872        0.19661136        1.41000000        1.36157498
    12.43619856       46.95174975        0.18535911        0.19536072        1.41000000        1.36035735
    12.52984518       46.99657827        0.18765740        0.19412024        1.41000000        1.35914133
    12.62216884       47.04140680        0.18993451        0.19288945        1.41000000        1.35792689
    12.71322318       47.08623532        0.19219129        0.19166793        1.41000000        1.35671404
    12.80305844       47.13106384        0.19442854        0.19045527        1.41000000        1.35550278
    12.89172169       47.17589237        0.19664701        0.18925111        1.41000000        1.35429309
    12.97925713       47.22072089        0.19884741        0.18805508        1.41000000        1.35308497
    13.06570630       47.26554942        0.20103040        0.18686684        1.41000000        1.35187841
    13.15110833       47.31037794        0.20319661        0.18568609        1.41000000        1.35067342
    13.23550010       47.35520646        0.20534664        0.18451252        1.41000000        1.34946999
    13.31891640       47.40003499        0.20748103        0.18334586        1.41000000        1.34826810
    13.40139013       47.44486351        0.20960033        0.18218583        1.41000000        1.34706776
    13.48295236       47.48969203        0.21170504        0.18103218        1.41000000        1.34586896
    13.56363258       47.53452056        0.21379563        0.17988467        1.41000000        1.34467170
    13.64345870       47.57934908        0.21587255        0.17874307        1.41000000        1.34347597
    13.72245723       47.62417761        0.21793624        0.17760717        1.41000000        1.34228177
    13.80065333       47.66900613        0.21998710        0.17647675        1.41000000        1.34108909
    13.87807093       47.71383465        0.22202552        0.17535162        1.41000000        1.33989792
    13.95473280       47.75866318        0.22405187        0.17423160        1.41000000        1.33870827
    14.03066064       47.80349170        0.22606651        0.17311650        1.41000000        1.33752012
    14.10587511       47.84832022        0.22806978        0.17200615        1.41000000        1.33633348
    14.18039594       47.89314875        0.23006198        0.17090039        1.41000000        1.33514833
    14.25424196       47.93797727        0.23204345        0.16979906        1.41000000        1.33396468
    14.32743115       47.98280580        0.23401445        0.16870201        1.41000000        1.33278252
    14.39998072       48.02763432        0.23597529        0.16760910        1.41000000        1.33160184
    14.47190713       48.07246284        0.23792623        0.16652019        1.41000000        1.33042264
    14.54322612       48.11729137        0.23986752        0.16543514        1.41000000        1.32924491
    14.61395282       48.16211989        0.24179942        0.16435384        1.41000000        1.32806866
    14.68410167       48.20694841        0.24372216        0.16327615        1.41000000        1.32689387
    14.75368658       48.25177694        0.24563597        0.16220197        1.41000000        1.32572055
    14.82272087       48.29660546        0.24754107        0.16113118        1.41000000        1.32454868
    14.89121734       48.34143399        0.24943767        0.16006367        1.41000000        1.32337827
    14.95918829       48.38626251        0.25132597        0.15899933        1.41000000        1.32220930
    15.02664555       48.43109103        0.25320617        0.15793807        1.41000000        1.32104178
    15.09360050       48.47591956        0.25507846        0.15687979        1.41000000        1.31987570
    15.16006409       48.52074808        0.25694302        0.15582440        1.41000000        1.31871106
    15.22604688       48.56557660        0.25880001        0.15477180        1.41000000        1.31754785
    15.29155901       48.61040513        0.26064961        0.15372191        1.41000000        1.31638606
    15.35661029       48.65523365        0.26249198        0.15267465        1.41000000        1.31522570
    15.42121017       48.70006218        0.26432728        0.15162993        1.41000000        1.31406676
    15.48536776       48.74489070        0.26615565        0.15058768        1.41000000        1.31290923
    15.54909186       48.78971922        0.26797724        0.14954782        1.41000000        1.31175312
    15.61239096       48.83454775        0.26979220        0.14851027        1.41000000        1.31059841
    15.67527327       48.87937627        0.27160065        0.14747497        1.41000000        1.30944511
    15.73774674       48.92420479        0.27340273        0.14644185        1.41000000        1.30829320
    15.79981901       48.96903332        0.27519856        0.14541084        1.41000000        1.30714270
    15.86149753       49.01386184        0.27698827        0.14438187        1.41000000        1.30599358
    15.92278945       49.05869037        0.27877198        0.14335489        1.41000000        1.30484585
    15.98370173       49.10351889        0.28054980        0.14232983        1.41000000        1.30369950
    16.04424111       49.14834741        0.28232184        0.14130664        1.41000000        1.30255454
    16.10441409       49.19317594        0.28408821        0.14028525        1.41000000        1.30141095
    16.16422698       49.23800446        0.28584901        0.13926561        1.41000000        1.30026873
    16.22368592       49.28283298        0.28760435        0.13824768        1.41000000        1.29912788
    16.28279683       49.32766151        0.28935432        0.13723139        1.41000000        1.29798840
    16.34156546       49.37249003        0.29109902        0.13621669        1.41000000        1.29685027
    16.39999742       49.41731856        0.29283854        0.13520354        1.41000000        1.29571351
    16.45809810       49.46214708        0.29457297        0.13419189        1.41000000        1.29457810
    16.51587279       49.50697560        0.29630240        0.13318169        1.41000000        1.29344403
    16.57332658       49.55180413        0.29802691        0.13217289        1.41000000        1.29231132
    16.63046443       49.59663265        0.29974658        0.13116546        1.41000000        1.29117995
    16.68729118       49.64146117        0.30146149        0.13015934        1.41000000        1.29004991
    16.74381151       49.68628970        0.30317172        0.12915450        1.41000000        1.28892122
    16.80002996       49.73111822        0.30487735        0.12815090        1.41000000        1.28779385
    16.85595098       49.77594675        0.30657844        0.12714850        1.41000000        1.28666782
    16.91157888       49.82077527        0.30827507        0.12614725        1.41000000        1.28554311
    16.96691784       49.86560379        0.30996731        0.12514712        1.41000000        1.28441972
    17.02197195       49.91043232        0.31165522        0.12414808        1.41000000        1.28329765
    17.07674517       49.95526084        0.31333888        0.12315008        1.41000000        1.28217690
    17.13124138       50.00008936        0.31501833        0.12215310        1.41000000        1.28105746
    17.18546433       50.04491789        0.31669365        0.12115709        1.41000000        1.27993932
    17.23941771       50.08974641        0.31836490        0.12016203        1.41000000        1.27882250
    17.29310507       50.13457494        0.32003212        0.11916788        1.41000000        1.27770697
    17.34652990       50.17940346        0.32169539        0.11817462        1.41000000        1.27659274
    17.39969560       50.22423198        0.32335476        0.11718220        1.41000000        1.27547981
    17.45260546       50.26906051        0.32501027        0.11619060        1.41000000        1.27436817
    17.50526273       50.31388903        0.32666199        0.11519979        1.41000000        1.27325782
    17.55767054       50.35871755        0.32830996        0.11420974        1.41000000        1.27214876
    17.60983197       50.40354608        0.32995424        0.11322043        1.41000000        1.27104097
    17.66175000       50.44837460        0.33159487        0.11223182        1.41000000        1.26993447
    17.71342756       50.49320313        0.33323190        0.11124388        1.41000000        1.26882925
    17.76486750       50.53803165        0.33486538        0.11025660        1.41000000        1.26772529
    17.81607261       50.58286017        0.33649535        0.10926995        1.41000000        1.26662261
    17.86704559       50.62768870        0.33812185        0.10828389        1.41000000        1.26552120
    17.91778912       50.67251722        0.33974494        0.10729841        1.41000000        1.26442105
    17.96830576       50.71734574        0.34136464        0.10631348        1.41000000        1.26332216
    18.01859807       50.76217427        0.34298101        0.10532908        1.41000000        1.26222453
    18.06866851       50.80700279        0.34459409        0.10434518        1.41000000        1.26112815
    18.11851950       50.85183132        0.34620390        0.10336176        1.41000000        1.26003303
    18.16815340       50.89665984        0.34781049        0.10237881        1.41000000        1.25893916
    18.21757252       50.94148836        0.34941390        0.10139629        1.41000000        1.25784653
    18.26677912       50.98631689        0.35101417        0.10041418        1.41000000        1.25675515
    18.31577541       51.03114541        0.35261132        0.09943247        1.41000000        1.25566501
    18.36456353       51.07597393        0.35420540        0.09845114        1.41000000        1.25457611
    18.41314562       51.12080246        0.35579643        0.09747016        1.41000000        1.25348844
    18.46152371       51.16563098        0.35738446        0.09648951        1.41000000        1.25240201
    18.50969985       51.21045951        0.35896950        0.09550918        1.41000000        1.25131680
    18.55767601       51.25528803        0.36055161        0.09452915        1.41000000        1.25023282
    18.60545411       51.30011655        0.36213079        0.09354939        1.41000000        1.24915007
    18.65303605       51.34494508        0.36370710        0.09256989        1.41000000        1.24806854
    18.70042369       51.38977360        0.36528055        0.09159063        1.41000000        1.24698823
    18.74761884       51.43460212        0.36685117        0.09061160        1.41000000        1.24590913
    18.79462327       51.47943065        0.36841899        0.08963277        1.41000000        1.24483125
    18.84143872       51.52425917        0.36998405        0.08865414        1.41000000        1.24375458
    18.88806689       51.56908770        0.37154636        0.08767567        1.41000000        1.24267911
    18.93450946       51.61391622        0.37310595        0.08669736        1.41000000        1.24160486
    18.98076805       51.65874474        0.37466286        0.08571919        1.41000000        1.24053180
    19.02684427       51.70357327        0.37621709        0.08474115        1.41000000        1.23945995
    19.07273967       51.74840179        0.37776869        0.08376321        1.41000000        1.23838930
    19.11845581       51.79323031        0.37931767        0.08278537        1.41000000        1.23731984
    19.16399417       51.83805884        0.38086405        0.08180761        1.41000000        1.23625157
    19.20935625       51.88288736        0.38240787        0.08082991        1.41000000        1.23518450
    19.25454347       51.92771589        0.38394914        0.07985226        1.41000000        1.23411861
    19.29955726       51.97254441        0.38548788        0.07887464        1.41000000        1.23305392
    19.34439902       52.01737293        0.38702412        0.07789705        1.41000000        1.23199040
    19.38907009       52.06220146        0.38855787        0.07691947        1.41000000        1.23092807
    19.43357182       52.10702998        0.39008917        0.07594188        1.41000000        1.22986691
    19.47790551       52.15185850        0.39161802        0.07496427        1.41000000        1.22880693
    19.52207246       52.19668703        0.39314445        0.07398662        1.41000000        1.22774813
    19.56607390       52.24151555        0.39466848        0.07300894        1.41000000        1.22669049
    19.60991109       52.28634408        0.39619012        0.07203119        1.41000000        1.22563403
    19.65358523       52.33117260        0.39770940        0.07105338        1.41000000        1.22457873
    19.69709751       52.37600112        0.39922633        0.07007548        1.41000000        1.22352460
    19.74044910       52.42082965        0.40074094        0.06909749        1.41000000        1.22247163
    19.78364113       52.46565817        0.40225323        0.06811939        1.41000000        1.22141983
    19.82667474       52.51048669        0.40376323        0.06714118        1.41000000        1.22036918
    19.86955103       52.55531522        0.40527095        0.06616284        1.41000000        1.21931968
    19.91227106       52.60014374        0.40677642        0.06518435        1.41000000        1.21827134
    19.95483592       52.64497227        0.40827963        0.06420572        1.41000000        1.21722416
    19.99724662       52.68980079        0.40978062        0.06322692        1.41000000        1.21617812
    20.03950420       52.73462931        0.41127940        0.06224795        1.41000000        1.21513323
    20.08160967       52.77945784        0.41277598        0.06126880        1.41000000        1.21408949
    20.12356399       52.82428636        0.41427037        0.06028945        1.41000000        1.21304689
    20.16536815       52.86911488        0.41576260        0.05930989        1.41000000        1.21200543
    20.20702308       52.91394341        0.41725267        0.05833013        1.41000000        1.21096511
    20.24852972       52.95877193        0.41874060        0.05735013        1.41000000        1.20992592
    20.28988899       53.00360046        0.42022640        0.05636991        1.41000000        1.20888788
    20.33110178       53.04842898        0.42171009        0.05538944        1.41000000        1.20785096
    20.37216897       53.09325750        0.42319168        0.05440871        1.41000000        1.20681518
    20.41309144       53.13808603        0.42467118        0.05342773        1.41000000        1.20578052
    20.45387002       53.18291455        0.42614860        0.05244647        1.41000000        1.20474700
    20.49450557       53.22774307        0.42762396        0.05146493        1.41000000        1.20371460
