#  Theta paroi en deg Angle Choc en deg       Kp           Inverse Mach       Mach amont       Mach aval
     0.00000000       30.85188599        0.00000000        0.48717949        1.95000000
     2.02110356       30.85366043        0.00761546        0.48375185        1.95000000        1.94992199
     2.42005747       30.85614319        0.01032442        0.48253730        1.95000000        1.94981285
     2.85736316       30.86075090        0.01364016        0.48105400        1.95000000        1.94961034
     3.33301797       30.86890020        0.01762673        0.47927527        1.95000000        1.94925228
     3.82568935       30.88200771        0.02214428        0.47726563        1.95000000        1.94867664
     4.32244107       30.90149008        0.02707427        0.47507957        1.95000000        1.94782169
     4.81780983       30.92876393        0.03234501        0.47275028        1.95000000        1.94662611
     5.31030122       30.96524590        0.03791943        0.47029533        1.95000000        1.94502922
     5.80029410       31.01235263        0.04378289        0.46772219        1.95000000        1.94297119
     6.28900724       31.07150074        0.04993524        0.46503190        1.95000000        1.94039334
     6.69412485       31.13064886        0.05525890        0.46271159        1.95000000        1.93782237
     7.04494959       31.18979697        0.06002919        0.46063824        1.95000000        1.93525822
     7.35731894       31.24894508        0.06439946        0.45874336        1.95000000        1.93270084
     7.64084403       31.30809320        0.06846501        0.45698441        1.95000000        1.93015015
     7.90183235       31.36724131        0.07228957        0.45533297        1.95000000        1.92760611
     8.14466467       31.42638943        0.07591812        0.45376896        1.95000000        1.92506865
     8.37251749       31.48553754        0.07938374        0.45227765        1.95000000        1.92253771
     8.58777342       31.54468565        0.08271154        0.45084784        1.95000000        1.92001324
     8.79226913       31.60383377        0.08592108        0.44947081        1.95000000        1.91749517
     8.98745274       31.66298188        0.08902791        0.44813962        1.95000000        1.91498345
     9.17448788       31.72213000        0.09204465        0.44684865        1.95000000        1.91247803
     9.35432479       31.78127811        0.09498169        0.44559326        1.95000000        1.90997884
     9.52775031       31.84042622        0.09784768        0.44436960        1.95000000        1.90748584
     9.69542387       31.89957434        0.10064991        0.44317442        1.95000000        1.90499897
     9.85790411       31.95872245        0.10339460        0.44200493        1.95000000        1.90251818
    10.01566873       32.01787057        0.10608709        0.44085875        1.95000000        1.90004341
    10.16912965       32.07701868        0.10873202        0.43973381        1.95000000        1.89757461
    10.31864481       32.13616679        0.11133343        0.43862830        1.95000000        1.89511174
    10.46452730       32.19531491        0.11389486        0.43754064        1.95000000        1.89265473
    10.60705277       32.25446302        0.11641946        0.43646942        1.95000000        1.89020354
    10.74646518       32.31361114        0.11891000        0.43541339        1.95000000        1.88775812
    10.88298165       32.37275925        0.12136898        0.43437144        1.95000000        1.88531842
    11.01679625       32.43190737        0.12379862        0.43334257        1.95000000        1.88288439
    11.14808326       32.49105548        0.12620093        0.43232587        1.95000000        1.88045598
    11.27699981       32.55020359        0.12857772        0.43132053        1.95000000        1.87803315
    11.40368808       32.60935171        0.13093063        0.43032581        1.95000000        1.87561584
    11.52827719       32.66849982        0.13326117        0.42934103        1.95000000        1.87320402
    11.65088477       32.72764794        0.13557070        0.42836557        1.95000000        1.87079763
    11.77161832       32.78679605        0.13786047        0.42739888        1.95000000        1.86839664
    11.89057635       32.84594416        0.14013162        0.42644043        1.95000000        1.86600098
    12.00784938       32.90509228        0.14238522        0.42548973        1.95000000        1.86361063
    12.12352079       32.96424039        0.14462223        0.42454636        1.95000000        1.86122554
    12.23766757       33.02338851        0.14684356        0.42360989        1.95000000        1.85884566
    12.35036096       33.08253662        0.14905003        0.42267996        1.95000000        1.85647095
    12.46166705       33.14168473        0.15124243        0.42175620        1.95000000        1.85410137
    12.57164723       33.20083285        0.15342146        0.42083828        1.95000000        1.85173688
    12.68035865       33.25998096        0.15558781        0.41992590        1.95000000        1.84937742
    12.78785461       33.31912908        0.15774209        0.41901877        1.95000000        1.84702298
    12.89418493       33.37827719        0.15988490        0.41811662        1.95000000        1.84467349
    12.99939620       33.43742530        0.16201676        0.41721920        1.95000000        1.84232893
    13.10353210       33.49657342        0.16413821        0.41632627        1.95000000        1.83998926
    13.20663362       33.55572153        0.16624971        0.41543761        1.95000000        1.83765442
    13.30873930       33.61486965        0.16835172        0.41455301        1.95000000        1.83532440
    13.40988538       33.67401776        0.17044466        0.41367226        1.95000000        1.83299914
    13.51010606       33.73316587        0.17252894        0.41279518        1.95000000        1.83067860
    13.60943358       33.79231399        0.17460493        0.41192160        1.95000000        1.82836276
    13.70789839       33.85146210        0.17667299        0.41105134        1.95000000        1.82605158
    13.80552931       33.91061022        0.17873345        0.41018425        1.95000000        1.82374501
    13.90235362       33.96975833        0.18078663        0.40932017        1.95000000        1.82144302
    13.99839715       34.02890644        0.18283284        0.40845896        1.95000000        1.81914558
    14.09368446       34.08805456        0.18487236        0.40760048        1.95000000        1.81685265
    14.18823880       34.14720267        0.18690545        0.40674461        1.95000000        1.81456420
    14.28208236       34.20635079        0.18893239        0.40589122        1.95000000        1.81228018
    14.37523617       34.26549890        0.19095341        0.40504019        1.95000000        1.81000057
    14.46772030       34.32464701        0.19296874        0.40419141        1.95000000        1.80772533
    14.55955386       34.38379513        0.19497861        0.40334477        1.95000000        1.80545443
    14.65075509       34.44294324        0.19698323        0.40250016        1.95000000        1.80318784
    14.74134139       34.50209136        0.19898279        0.40165749        1.95000000        1.80092552
    14.83132938       34.56123947        0.20097749        0.40081667        1.95000000        1.79866744
    14.92073497       34.62038758        0.20296752        0.39997759        1.95000000        1.79641356
    15.00957334       34.67953570        0.20495304        0.39914019        1.95000000        1.79416386
    15.09785907       34.73868381        0.20693422        0.39830436        1.95000000        1.79191831
    15.18560610       34.79783193        0.20891122        0.39747004        1.95000000        1.78967687
    15.27282778       34.85698004        0.21088420        0.39663714        1.95000000        1.78743951
    15.35953694       34.91612815        0.21285329        0.39580559        1.95000000        1.78520621
    15.44574588       34.97527627        0.21481864        0.39497532        1.95000000        1.78297692
    15.53146641       35.03442438        0.21678039        0.39414626        1.95000000        1.78075163
    15.61670990       35.09357250        0.21873865        0.39331834        1.95000000        1.77853030
    15.70148725       35.15272061        0.22069356        0.39249150        1.95000000        1.77631291
    15.78580896       35.21186872        0.22264523        0.39166568        1.95000000        1.77409942
    15.86968515       35.27101684        0.22459377        0.39084081        1.95000000        1.77188980
    15.95312551       35.33016495        0.22653929        0.39001685        1.95000000        1.76968404
    16.03613945       35.38931307        0.22848190        0.38919373        1.95000000        1.76748209
    16.11873599       35.44846118        0.23042169        0.38837140        1.95000000        1.76528394
    16.20092383       35.50760929        0.23235877        0.38754981        1.95000000        1.76308955
    16.28271138       35.56675741        0.23429322        0.38672890        1.95000000        1.76089890
    16.36410677       35.62590552        0.23622513        0.38590864        1.95000000        1.75871196
    16.44511780       35.68505364        0.23815459        0.38508896        1.95000000        1.75652871
    16.52575206       35.74420175        0.24008168        0.38426984        1.95000000        1.75434911
    16.60601684       35.80334986        0.24200648        0.38345121        1.95000000        1.75217315
    16.68591922       35.86249798        0.24392906        0.38263304        1.95000000        1.75000079
    16.76546603       35.92164609        0.24584951        0.38181529        1.95000000        1.74783202
    16.84466389       35.98079421        0.24776788        0.38099791        1.95000000        1.74566680
    16.92351920       36.03994232        0.24968425        0.38018086        1.95000000        1.74350512
    17.00203814       36.09909043        0.25159869        0.37936412        1.95000000        1.74134694
    17.08022673       36.15823855        0.25351125        0.37854763        1.95000000        1.73919225
    17.15809079       36.21738666        0.25542200        0.37773136        1.95000000        1.73704101
    17.23563593       36.27653478        0.25733100        0.37691528        1.95000000        1.73489321
    17.31286765       36.33568289        0.25923830        0.37609936        1.95000000        1.73274883
    17.38979122       36.39483100        0.26114396        0.37528355        1.95000000        1.73060783
    17.46641181       36.45397912        0.26304803        0.37446783        1.95000000        1.72847019
    17.54273439       36.51312723        0.26495056        0.37365217        1.95000000        1.72633590
    17.61876381       36.57227535        0.26685160        0.37283652        1.95000000        1.72420493
    17.69450477       36.63142346        0.26875121        0.37202087        1.95000000        1.72207725
    17.76996185       36.69057157        0.27064942        0.37120518        1.95000000        1.71995285
    17.84513948       36.74971969        0.27254628        0.37038943        1.95000000        1.71783171
    17.92004197       36.80886780        0.27444183        0.36957358        1.95000000        1.71571379
    17.99467353       36.86801592        0.27633611        0.36875761        1.95000000        1.71359909
    18.06903823       36.92716403        0.27822917        0.36794149        1.95000000        1.71148758
    18.14314004       36.98631214        0.28012105        0.36712519        1.95000000        1.70937923
    18.21698281       37.04546026        0.28201177        0.36630869        1.95000000        1.70727404
    18.29057030       37.10460837        0.28390138        0.36549197        1.95000000        1.70517196
    18.36390618       37.16375649        0.28578991        0.36467499        1.95000000        1.70307300
    18.43699398       37.22290460        0.28767740        0.36385773        1.95000000        1.70097712
    18.50983719       37.28205271        0.28956388        0.36304018        1.95000000        1.69888431
    18.58243918       37.34120083        0.29144937        0.36222230        1.95000000        1.69679455
    18.65480324       37.40034894        0.29333392        0.36140408        1.95000000        1.69470781
    18.72693256       37.45949706        0.29521754        0.36058549        1.95000000        1.69262409
    18.79883028       37.51864517        0.29710027        0.35976651        1.95000000        1.69054335
    18.87049944       37.57779328        0.29898214        0.35894712        1.95000000        1.68846558
    18.94194300       37.63694140        0.30086317        0.35812730        1.95000000        1.68639076
    19.01316387       37.69608951        0.30274339        0.35730702        1.95000000        1.68431888
    19.08416487       37.75523763        0.30462283        0.35648627        1.95000000        1.68224991
    19.15494877       37.81438574        0.30650150        0.35566502        1.95000000        1.68018384
    19.22551822       37.87353385        0.30837943        0.35484326        1.95000000        1.67812064
    19.29587589       37.93268197        0.31025664        0.35402097        1.95000000        1.67606031
    19.36602431       37.99183008        0.31213316        0.35319813        1.95000000        1.67400282
    19.43596600       38.05097820        0.31400901        0.35237472        1.95000000        1.67194816
    19.50570340       38.11012631        0.31588420        0.35155072        1.95000000        1.66989630
    19.57523888       38.16927442        0.31775876        0.35072612        1.95000000        1.66784724
    19.64457480       38.22842254        0.31963271        0.34990089        1.95000000        1.66580095
    19.71371341       38.28757065        0.32150606        0.34907502        1.95000000        1.66375742
    19.78265696       38.34671877        0.32337883        0.34824849        1.95000000        1.66171663
    19.85140761       38.40586688        0.32525104        0.34742129        1.95000000        1.65967856
    19.91996748       38.46501499        0.32712270        0.34659339        1.95000000        1.65764321
    19.98833867       38.52416311        0.32899384        0.34576479        1.95000000        1.65561054
    20.05652319       38.58331122        0.33086447        0.34493546        1.95000000        1.65358056
    20.12452304       38.64245934        0.33273459        0.34410540        1.95000000        1.65155323
    20.19234017       38.70160745        0.33460424        0.34327458        1.95000000        1.64952855
    20.25997647       38.76075556        0.33647341        0.34244298        1.95000000        1.64750650
    20.32743381       38.81990368        0.33834213        0.34161061        1.95000000        1.64548707
    20.39471399       38.87905179        0.34021041        0.34077743        1.95000000        1.64347024
    20.46181882       38.93819991        0.34207825        0.33994343        1.95000000        1.64145599
    20.52875002       38.99734802        0.34394568        0.33910861        1.95000000        1.63944431
    20.59550931       39.05649613        0.34581270        0.33827294        1.95000000        1.63743519
    20.66209836       39.11564425        0.34767933        0.33743642        1.95000000        1.63542861
    20.72851880       39.17479236        0.34954557        0.33659902        1.95000000        1.63342455
    20.79477224       39.23394048        0.35141144        0.33576073        1.95000000        1.63142301
    20.86086024       39.29308859        0.35327694        0.33492154        1.95000000        1.62942397
    20.92678435       39.35223670        0.35514209        0.33408144        1.95000000        1.62742741
    20.99254606       39.41138482        0.35700689        0.33324042        1.95000000        1.62543333
    21.05814685       39.47053293        0.35887136        0.33239845        1.95000000        1.62344170
    21.12358816       39.52968105        0.36073550        0.33155553        1.95000000        1.62145251
    21.18887141       39.58882916        0.36259932        0.33071164        1.95000000        1.61946576
    21.25399800       39.64797727        0.36446283        0.32986678        1.95000000        1.61748142
    21.31896927       39.70712539        0.36632604        0.32902092        1.95000000        1.61549949
    21.38378656       39.76627350        0.36818895        0.32817406        1.95000000        1.61351995
    21.44845117       39.82542162        0.37005157        0.32732619        1.95000000        1.61154279
    21.51296440       39.88456973        0.37191391        0.32647729        1.95000000        1.60956799
    21.57732749       39.94371784        0.37377597        0.32562734        1.95000000        1.60759555
    21.64154166       40.00286596        0.37563776        0.32477635        1.95000000        1.60562545
    21.70560814       40.06201407        0.37749929        0.32392429        1.95000000        1.60365767
    21.76952810       40.12116219        0.37936055        0.32307115        1.95000000        1.60169222
    21.83330270       40.18031030        0.38122157        0.32221693        1.95000000        1.59972906
    21.89693310       40.23945841        0.38308233        0.32136161        1.95000000        1.59776821
    21.96042039       40.29860653        0.38494286        0.32050517        1.95000000        1.59580963
    22.02376567       40.35775464        0.38680314        0.31964762        1.95000000        1.59385332
    22.08697003       40.41690276        0.38866319        0.31878893        1.95000000        1.59189927
    22.15003451       40.47605087        0.39052300        0.31792910        1.95000000        1.58994746
    22.21296016       40.53519898        0.39238259        0.31706812        1.95000000        1.58799789
    22.27574799       40.59434710        0.39424196        0.31620597        1.95000000        1.58605054
    22.33839898       40.65349521        0.39610111        0.31534264        1.95000000        1.58410541
    22.40091413       40.71264333        0.39796004        0.31447813        1.95000000        1.58216247
    22.46329439       40.77179144        0.39981876        0.31361242        1.95000000        1.58022173
    22.52554071       40.83093956        0.40167726        0.31274550        1.95000000        1.57828316
    22.58765400       40.89008767        0.40353556        0.31187736        1.95000000        1.57634677
    22.64963518       40.94923578        0.40539365        0.31100800        1.95000000        1.57441253
    22.71148514       41.00838390        0.40725154        0.31013739        1.95000000        1.57248045
    22.77320475       41.06753201        0.40910923        0.30926553        1.95000000        1.57055050
    22.83479487       41.12668013        0.41096672        0.30839242        1.95000000        1.56862267
    22.89625635       41.18582824        0.41282401        0.30751803        1.95000000        1.56669697
    22.95759002       41.24497635        0.41468110        0.30664237        1.95000000        1.56477337
    23.01879668       41.30412447        0.41653800        0.30576541        1.95000000        1.56285187
    23.07987713       41.36327258        0.41839470        0.30488716        1.95000000        1.56093245
    23.14083217       41.42242070        0.42025121        0.30400759        1.95000000        1.55901512
    23.20166255       41.48156881        0.42210753        0.30312671        1.95000000        1.55709985
