#  Theta paroi en deg Angle Choc en deg       Kp           Inverse Mach       Mach amont       Mach aval
     0.00000000       28.14458131        0.00000000        0.52830189        2.12000000
     1.94583367       28.14643697        0.00690299        0.52522296        2.12000000        2.11990962
     2.33599229       28.14903337        0.00939095        0.52411930        2.12000000        2.11978319
     2.76095828       28.15385198        0.01241760        0.52278088        2.12000000        2.11954858
     3.22183253       28.16237429        0.01604465        0.52118289        2.12000000        2.11913379
     3.69861865       28.17608175        0.02014797        0.51938270        2.12000000        2.11846701
     4.17928022       28.19645586        0.02462354        0.51742820        2.12000000        2.11747682
     4.65887891       28.22497808        0.02941010        0.51534798        2.12000000        2.11609236
     5.13623227       28.26312989        0.03447787        0.51315656        2.12000000        2.11424363
     5.61191985       28.31239277        0.03981744        0.51085948        2.12000000        2.11186179
     6.08730300       28.37424819        0.04543261        0.50845650        2.12000000        2.10887949
     6.48219447       28.43610361        0.05030334        0.50638226        2.12000000        2.10590644
     6.82482997       28.49795902        0.05467801        0.50452704        2.12000000        2.10294253
     7.13046372       28.55981444        0.05869480        0.50282987        2.12000000        2.09998767
     7.40835000       28.62166986        0.06243947        0.50125293        2.12000000        2.09704178
     7.66456055       28.68352528        0.06596934        0.49977095        2.12000000        2.09410474
     7.90331167       28.74538070        0.06932485        0.49836613        2.12000000        2.09117647
     8.12766003       28.80723612        0.07253567        0.49702539        2.12000000        2.08825688
     8.33989799       28.86909154        0.07562434        0.49573880        2.12000000        2.08534588
     8.54179249       28.93094696        0.07860840        0.49449864        2.12000000        2.08244339
     8.73473652       28.99280237        0.08150180        0.49329877        2.12000000        2.07954930
     8.91984929       29.05465779        0.08431582        0.49213420        2.12000000        2.07666355
     9.09804466       29.11651321        0.08705978        0.49100085        2.12000000        2.07378603
     9.27007928       29.17836863        0.08974140        0.48989531        2.12000000        2.07091667
     9.43658727       29.24022405        0.09236720        0.48881468        2.12000000        2.06805539
     9.59810574       29.30207947        0.09494276        0.48775654        2.12000000        2.06520210
     9.75509399       29.36393489        0.09747283        0.48671875        2.12000000        2.06235673
     9.90794802       29.42579030        0.09996155        0.48569951        2.12000000        2.05951919
    10.05701191       29.48764572        0.10241253        0.48469721        2.12000000        2.05668940
    10.20258663       29.54950114        0.10482893        0.48371045        2.12000000        2.05386729
    10.34493713       29.61135656        0.10721354        0.48273800        2.12000000        2.05105278
    10.48429787       29.67321198        0.10956885        0.48177875        2.12000000        2.04824580
    10.62087753       29.73506740        0.11189707        0.48083172        2.12000000        2.04544627
    10.75486262       29.79692282        0.11420018        0.47989604        2.12000000        2.04265412
    10.88642063       29.85877824        0.11647996        0.47897089        2.12000000        2.03986927
    11.01570251       29.92063365        0.11873803        0.47805557        2.12000000        2.03709165
    11.14284492       29.98248907        0.12097585        0.47714942        2.12000000        2.03432120
    11.26797189       30.04434449        0.12319475        0.47625185        2.12000000        2.03155784
    11.39119644       30.10619991        0.12539593        0.47536231        2.12000000        2.02880150
    11.51262187       30.16805533        0.12758051        0.47448031        2.12000000        2.02605213
    11.63234280       30.22991075        0.12974950        0.47360539        2.12000000        2.02330964
    11.75044619       30.29176617        0.13190384        0.47273712        2.12000000        2.02057397
    11.86701213       30.35362159        0.13404439        0.47187512        2.12000000        2.01784506
    11.98211457       30.41547700        0.13617194        0.47101903        2.12000000        2.01512285
    12.09582196       30.47733242        0.13828723        0.47016851        2.12000000        2.01240726
    12.20819775       30.53918784        0.14039094        0.46932325        2.12000000        2.00969824
    12.31930092       30.60104326        0.14248372        0.46848296        2.12000000        2.00699573
    12.42918635       30.66289868        0.14456614        0.46764736        2.12000000        2.00429966
    12.53790523       30.72475410        0.14663876        0.46681622        2.12000000        2.00160997
    12.64550539       30.78660952        0.14870209        0.46598928        2.12000000        1.99892660
    12.75203160       30.84846493        0.15075662        0.46516634        2.12000000        1.99624950
    12.85752578       30.91032035        0.15280279        0.46434717        2.12000000        1.99357861
    12.96202729       30.97217577        0.15484103        0.46353158        2.12000000        1.99091386
    13.06557315       31.03403119        0.15687173        0.46271939        2.12000000        1.98825521
    13.16819816       31.09588661        0.15889527        0.46191042        2.12000000        1.98560259
    13.26993513       31.15774203        0.16091199        0.46110450        2.12000000        1.98295595
    13.37081504       31.21959745        0.16292224        0.46030149        2.12000000        1.98031524
    13.47086713       31.28145287        0.16492631        0.45950123        2.12000000        1.97768039
    13.57011905       31.34330828        0.16692450        0.45870358        2.12000000        1.97505137
    13.66859700       31.40516370        0.16891710        0.45790841        2.12000000        1.97242811
    13.76632579       31.46701912        0.17090437        0.45711559        2.12000000        1.96981057
    13.86332898       31.52887454        0.17288654        0.45632500        2.12000000        1.96719869
    13.95962891       31.59072996        0.17486387        0.45553653        2.12000000        1.96459242
    14.05524686       31.65258538        0.17683658        0.45475007        2.12000000        1.96199171
    14.15020303       31.71444080        0.17880487        0.45396551        2.12000000        1.95939652
    14.24451670       31.77629622        0.18076895        0.45318275        2.12000000        1.95680678
    14.33820619       31.83815163        0.18272902        0.45240170        2.12000000        1.95422247
    14.43128904       31.90000705        0.18468525        0.45162227        2.12000000        1.95164352
    14.52378193       31.96186247        0.18663782        0.45084437        2.12000000        1.94906989
    14.61570083       32.02371789        0.18858689        0.45006792        2.12000000        1.94650153
    14.70706101       32.08557331        0.19053262        0.44929283        2.12000000        1.94393841
    14.79787705       32.14742873        0.19247517        0.44851904        2.12000000        1.94138046
    14.88816292       32.20928415        0.19441468        0.44774646        2.12000000        1.93882765
    14.97793202       32.27113956        0.19635128        0.44697502        2.12000000        1.93627994
    15.06719718       32.33299498        0.19828510        0.44620466        2.12000000        1.93373728
    15.15597070       32.39485040        0.20021627        0.44543532        2.12000000        1.93119962
    15.24426440       32.45670582        0.20214492        0.44466692        2.12000000        1.92866693
    15.33208962       32.51856124        0.20407114        0.44389940        2.12000000        1.92613916
    15.41945725       32.58041666        0.20599507        0.44313272        2.12000000        1.92361627
    15.50637778       32.64227208        0.20791679        0.44236681        2.12000000        1.92109822
    15.59286129       32.70412750        0.20983641        0.44160162        2.12000000        1.91858497
    15.67891748       32.76598291        0.21175403        0.44083708        2.12000000        1.91607647
    15.76455569       32.82783833        0.21366974        0.44007317        2.12000000        1.91357270
    15.84978491       32.88969375        0.21558362        0.43930981        2.12000000        1.91107360
    15.93461383       32.95154917        0.21749577        0.43854698        2.12000000        1.90857915
    16.01905081       33.01340459        0.21940626        0.43778461        2.12000000        1.90608930
    16.10310391       33.07526001        0.22131517        0.43702267        2.12000000        1.90360401
    16.18678093       33.13711543        0.22322258        0.43626111        2.12000000        1.90112325
    16.27008939       33.19897085        0.22512856        0.43549989        2.12000000        1.89864698
    16.35303655       33.26082626        0.22703318        0.43473897        2.12000000        1.89617516
    16.43562943       33.32268168        0.22893650        0.43397831        2.12000000        1.89370777
    16.51787483       33.38453710        0.23083859        0.43321787        2.12000000        1.89124475
    16.59977930       33.44639252        0.23273952        0.43245761        2.12000000        1.88878609
    16.68134920       33.50824794        0.23463933        0.43169750        2.12000000        1.88633173
    16.76259069       33.57010336        0.23653810        0.43093750        2.12000000        1.88388165
    16.84350971       33.63195878        0.23843586        0.43017758        2.12000000        1.88143582
    16.92411203       33.69381419        0.24033268        0.42941770        2.12000000        1.87899420
    17.00440323       33.75566961        0.24222861        0.42865784        2.12000000        1.87655676
    17.08438874       33.81752503        0.24412369        0.42789795        2.12000000        1.87412346
    17.16407382       33.87938045        0.24601798        0.42713802        2.12000000        1.87169427
    17.24346353       33.94123587        0.24791151        0.42637800        2.12000000        1.86926916
    17.32256285       34.00309129        0.24980433        0.42561788        2.12000000        1.86684811
    17.40137655       34.06494671        0.25169649        0.42485761        2.12000000        1.86443107
    17.47990929       34.12680213        0.25358802        0.42409718        2.12000000        1.86201801
    17.55816560       34.18865754        0.25547896        0.42333656        2.12000000        1.85960892
    17.63614987       34.25051296        0.25736935        0.42257571        2.12000000        1.85720375
    17.71386637       34.31236838        0.25925923        0.42181462        2.12000000        1.85480247
    17.79131925       34.37422380        0.26114863        0.42105326        2.12000000        1.85240506
    17.86851254       34.43607922        0.26303758        0.42029160        2.12000000        1.85001149
    17.94545015       34.49793464        0.26492613        0.41952961        2.12000000        1.84762173
    18.02213592       34.55979006        0.26681429        0.41876729        2.12000000        1.84523575
    18.09857354       34.62164548        0.26870210        0.41800459        2.12000000        1.84285352
    18.17476664       34.68350089        0.27058959        0.41724151        2.12000000        1.84047502
    18.25071872       34.74535631        0.27247678        0.41647801        2.12000000        1.83810021
    18.32643321       34.80721173        0.27436371        0.41571408        2.12000000        1.83572907
    18.40191346       34.86906715        0.27625039        0.41494969        2.12000000        1.83336158
    18.47716269       34.93092257        0.27813686        0.41418483        2.12000000        1.83099770
    18.55218409       34.99277799        0.28002314        0.41341946        2.12000000        1.82863741
    18.62698073       35.05463341        0.28190925        0.41265358        2.12000000        1.82628068
    18.70155562       35.11648882        0.28379521        0.41188716        2.12000000        1.82392750
    18.77591170       35.17834424        0.28568104        0.41112019        2.12000000        1.82157783
    18.85005182       35.24019966        0.28756678        0.41035263        2.12000000        1.81923164
    18.92397876       35.30205508        0.28945242        0.40958449        2.12000000        1.81688892
    18.99769526       35.36391050        0.29133801        0.40881573        2.12000000        1.81454964
    19.07120397       35.42576592        0.29322354        0.40804634        2.12000000        1.81221378
    19.14450746       35.48762134        0.29510905        0.40727630        2.12000000        1.80988130
    19.21760828       35.54947676        0.29699455        0.40650559        2.12000000        1.80755219
    19.29050890       35.61133217        0.29888005        0.40573420        2.12000000        1.80522643
    19.36321171       35.67318759        0.30076557        0.40496211        2.12000000        1.80290399
    19.43571909       35.73504301        0.30265113        0.40418930        2.12000000        1.80058484
    19.50803332       35.79689843        0.30453674        0.40341576        2.12000000        1.79826897
    19.58015666       35.85875385        0.30642242        0.40264147        2.12000000        1.79595635
    19.65209130       35.92060927        0.30830817        0.40186641        2.12000000        1.79364697
    19.72383938       35.98246469        0.31019402        0.40109058        2.12000000        1.79134079
    19.79540300       36.04432010        0.31207997        0.40031394        2.12000000        1.78903780
    19.86678423       36.10617552        0.31396604        0.39953650        2.12000000        1.78673798
    19.93798504       36.16803094        0.31585223        0.39875823        2.12000000        1.78444130
    20.00900742       36.22988636        0.31773856        0.39797911        2.12000000        1.78214774
    20.07985328       36.29174178        0.31962504        0.39719915        2.12000000        1.77985729
    20.15052449       36.35359720        0.32151169        0.39641831        2.12000000        1.77756993
    20.22102289       36.41545262        0.32339850        0.39563659        2.12000000        1.77528562
    20.29135027       36.47730804        0.32528549        0.39485397        2.12000000        1.77300436
    20.36150840       36.53916345        0.32717266        0.39407044        2.12000000        1.77072612
    20.43149899       36.60101887        0.32906004        0.39328598        2.12000000        1.76845089
    20.50132373       36.66287429        0.33094761        0.39250059        2.12000000        1.76617864
    20.57098426       36.72472971        0.33283540        0.39171424        2.12000000        1.76390935
    20.64048219       36.78658513        0.33472341        0.39092693        2.12000000        1.76164302
    20.70981912       36.84844055        0.33661164        0.39013864        2.12000000        1.75937961
    20.77899658       36.91029597        0.33850011        0.38934936        2.12000000        1.75711911
    20.84801610       36.97215139        0.34038881        0.38855908        2.12000000        1.75486150
    20.91687915       37.03400680        0.34227776        0.38776778        2.12000000        1.75260677
    20.98558720       37.09586222        0.34416696        0.38697545        2.12000000        1.75035489
    21.05414167       37.15771764        0.34605641        0.38618208        2.12000000        1.74810585
    21.12254394       37.21957306        0.34794613        0.38538766        2.12000000        1.74585963
    21.19079542       37.28142848        0.34983611        0.38459218        2.12000000        1.74361621
    21.25889741       37.34328390        0.35172636        0.38379562        2.12000000        1.74137558
    21.32685124       37.40513932        0.35361689        0.38299797        2.12000000        1.73913772
    21.39465821       37.46699473        0.35550769        0.38219922        2.12000000        1.73690261
    21.46231957       37.52885015        0.35739878        0.38139936        2.12000000        1.73467024
    21.52983657       37.59070557        0.35929015        0.38059838        2.12000000        1.73244059
    21.59721042       37.65256099        0.36118181        0.37979627        2.12000000        1.73021364
    21.66444230       37.71441641        0.36307376        0.37899301        2.12000000        1.72798938
    21.73153341       37.77627183        0.36496600        0.37818860        2.12000000        1.72576779
    21.79848487       37.83812725        0.36685855        0.37738301        2.12000000        1.72354886
    21.86529782       37.89998267        0.36875139        0.37657625        2.12000000        1.72133257
    21.93197335       37.96183808        0.37064453        0.37576831        2.12000000        1.71911891
    21.99851255       38.02369350        0.37253797        0.37495916        2.12000000        1.71690786
    22.06491649       38.08554892        0.37443172        0.37414881        2.12000000        1.71469940
    22.13118620       38.14740434        0.37632577        0.37333723        2.12000000        1.71249353
    22.19732271       38.20925976        0.37822012        0.37252442        2.12000000        1.71029022
    22.26332702       38.27111518        0.38011479        0.37171038        2.12000000        1.70808946
    22.32920012       38.33297060        0.38200976        0.37089508        2.12000000        1.70589125
    22.39494297       38.39482602        0.38390505        0.37007852        2.12000000        1.70369555
    22.46055653       38.45668143        0.38580064        0.36926069        2.12000000        1.70150237
    22.52604172       38.51853685        0.38769654        0.36844157        2.12000000        1.69931168
    22.59139946       38.58039227        0.38959275        0.36762117        2.12000000        1.69712348
    22.65663065       38.64224769        0.39148927        0.36679946        2.12000000        1.69493775
    22.72173618       38.70410311        0.39338610        0.36597645        2.12000000        1.69275447
    22.78671689       38.76595853        0.39528323        0.36515211        2.12000000        1.69057363
    22.85157366       38.82781395        0.39718068        0.36432644        2.12000000        1.68839523
    22.91630731       38.88966936        0.39907843        0.36349943        2.12000000        1.68621924
    22.98091866       38.95152478        0.40097649        0.36267107        2.12000000        1.68404565
    23.04540852       39.01338020        0.40287485        0.36184135        2.12000000        1.68187446
    23.10977768       39.07523562        0.40477352        0.36101026        2.12000000        1.67970565
    23.17402692       39.13709104        0.40667249        0.36017779        2.12000000        1.67753920
    23.23815699       39.19894646        0.40857176        0.35934394        2.12000000        1.67537510
    23.30216866       39.26080188        0.41047134        0.35850869        2.12000000        1.67321335
