#  Theta paroi en deg Angle Choc en deg       Kp           Inverse Mach       Mach amont       Mach aval
     0.00000000       13.77414700        0.00000000        0.76190476        4.20000000
     1.28754283       13.77643377        0.00268270        0.76047594        4.20000000        4.19970750
     1.55858439       13.77963338        0.00368370        0.75995142        4.20000000        4.19929837
     1.84783702       13.78557147        0.00487633        0.75933239        4.20000000        4.19853948
     2.15932341       13.79607369        0.00629347        0.75860498        4.20000000        4.19719856
     2.48184897       13.81296572        0.00789665        0.75779242        4.20000000        4.19504521
     2.80915159       13.83807320        0.00965730        0.75691230        4.20000000        4.19185229
     3.13936987       13.87322179        0.01156430        0.75597300        4.20000000        4.18739780
     3.47291390       13.92023714        0.01361924        0.75497646        4.20000000        4.18146704
     3.81121979       13.98094491        0.01583229        0.75392067        4.20000000        4.17385502
     4.15615256       14.05717077        0.01821964        0.75280106        4.20000000        4.16436899
     4.44844379       14.13339662        0.02034480        0.75182052        4.20000000        4.15496081
     4.70659594       14.20962247        0.02229902        0.75093164        4.20000000        4.14562837
     4.94059118       14.28584833        0.02413268        0.75010825        4.20000000        4.13636964
     5.15647960       14.36207418        0.02587685        0.74933421        4.20000000        4.12718265
     5.35822780       14.43830003        0.02755217        0.74859882        4.20000000        4.11806548
     5.54858867       14.51452589        0.02917309        0.74789455        4.20000000        4.10901630
     5.72955693       14.59075174        0.03075019        0.74721590        4.20000000        4.10003333
     5.90262789       14.66697759        0.03229143        0.74655869        4.20000000        4.09111485
     6.06895360       14.74320344        0.03380299        0.74591970        4.20000000        4.08225920
     6.22944200       14.81942930        0.03528975        0.74529638        4.20000000        4.07346477
     6.38482231       14.89565515        0.03675564        0.74468664        4.20000000        4.06473000
     6.53568974       14.97188100        0.03820387        0.74408879        4.20000000        4.05605340
     6.68253695       15.04810686        0.03963710        0.74350141        4.20000000        4.04743350
     6.82577668       15.12433271        0.04105757        0.74292332        4.20000000        4.03886890
     6.96575844       15.20055856        0.04246717        0.74235350        4.20000000        4.03035824
     7.10278099       15.27678442        0.04386751        0.74179107        4.20000000        4.02190019
     7.23710193       15.35301027        0.04525998        0.74123530        4.20000000        4.01349347
     7.36894494       15.42923612        0.04664578        0.74068552        4.20000000        4.00513686
     7.49850567       15.50546197        0.04802596        0.74014115        4.20000000        3.99682915
     7.62595634       15.58168783        0.04940145        0.73960169        4.20000000        3.98856919
     7.75144930       15.65791368        0.05077305        0.73906668        4.20000000        3.98035584
     7.87512011       15.73413953        0.05214149        0.73853572        4.20000000        3.97218802
     7.99708999       15.81036539        0.05350740        0.73800845        4.20000000        3.96406467
     8.11746768       15.88659124        0.05487137        0.73748455        4.20000000        3.95598477
     8.23635129       15.96281709        0.05623390        0.73696371        4.20000000        3.94794733
     8.35382953       16.03904295        0.05759545        0.73644567        4.20000000        3.93995139
     8.46998300       16.11526880        0.05895644        0.73593019        4.20000000        3.93199601
     8.58488511       16.19149465        0.06031725        0.73541704        4.20000000        3.92408029
     8.69860294       16.26772050        0.06167823        0.73490602        4.20000000        3.91620336
     8.81119799       16.34394636        0.06303968        0.73439694        4.20000000        3.90836437
     8.92272675       16.42017221        0.06440189        0.73388963        4.20000000        3.90056249
     9.03324126       16.49639806        0.06576512        0.73338393        4.20000000        3.89279692
     9.14278960       16.57262392        0.06712960        0.73287969        4.20000000        3.88506688
     9.25141627       16.64884977        0.06849556        0.73237677        4.20000000        3.87737163
     9.35916252       16.72507562        0.06986319        0.73187504        4.20000000        3.86971043
     9.46606672       16.80130148        0.07123269        0.73137440        4.20000000        3.86208258
     9.57216460       16.87752733        0.07260422        0.73087471        4.20000000        3.85448738
     9.67748946       16.95375318        0.07397794        0.73037589        4.20000000        3.84692416
     9.78207247       17.02997903        0.07535399        0.72987783        4.20000000        3.83939229
     9.88594277       17.10620489        0.07673251        0.72938044        4.20000000        3.83189113
     9.98912771       17.18243074        0.07811363        0.72888364        4.20000000        3.82442006
    10.09165294       17.25865659        0.07949745        0.72838735        4.20000000        3.81697850
    10.19354263       17.33488245        0.08088410        0.72789148        4.20000000        3.80956586
    10.29481948       17.41110830        0.08227367        0.72739597        4.20000000        3.80218160
    10.39550493       17.48733415        0.08366624        0.72690074        4.20000000        3.79482515
    10.49561923       17.56356001        0.08506192        0.72640574        4.20000000        3.78749600
    10.59518152       17.63978586        0.08646077        0.72591090        4.20000000        3.78019364
    10.69420986       17.71601171        0.08786288        0.72541617        4.20000000        3.77291755
    10.79272144       17.79223756        0.08926831        0.72492149        4.20000000        3.76566727
    10.89073251       17.86846342        0.09067714        0.72442680        4.20000000        3.75844231
    10.98825852       17.94468927        0.09208941        0.72393206        4.20000000        3.75124223
    11.08531415       18.02091512        0.09350520        0.72343722        4.20000000        3.74406656
    11.18191335       18.09714098        0.09492455        0.72294224        4.20000000        3.73691489
    11.27806943       18.17336683        0.09634751        0.72244706        4.20000000        3.72978680
    11.37379505       18.24959268        0.09777413        0.72195166        4.20000000        3.72268186
    11.46910231       18.32581854        0.09920445        0.72145599        4.20000000        3.71559970
    11.56400273       18.40204439        0.10063851        0.72096001        4.20000000        3.70853991
    11.65850736       18.47827024        0.10207636        0.72046369        4.20000000        3.70150213
    11.75262672       18.55449609        0.10351803        0.71996700        4.20000000        3.69448599
    11.84637090       18.63072195        0.10496355        0.71946989        4.20000000        3.68749114
    11.93974955       18.70694780        0.10641295        0.71897234        4.20000000        3.68051723
    12.03277195       18.78317365        0.10786626        0.71847432        4.20000000        3.67356392
    12.12544694       18.85939951        0.10932351        0.71797579        4.20000000        3.66663089
    12.21778307       18.93562536        0.11078472        0.71747674        4.20000000        3.65971782
    12.30978849       19.01185121        0.11224992        0.71697712        4.20000000        3.65282440
    12.40147108       19.08807707        0.11371913        0.71647693        4.20000000        3.64595033
    12.49283837       19.16430292        0.11519238        0.71597612        4.20000000        3.63909532
    12.58389763       19.24052877        0.11666967        0.71547468        4.20000000        3.63225909
    12.67465584       19.31675462        0.11815102        0.71497259        4.20000000        3.62544135
    12.76511976       19.39298048        0.11963646        0.71446981        4.20000000        3.61864184
    12.85529585       19.46920633        0.12112600        0.71396634        4.20000000        3.61186029
    12.94519039       19.54543218        0.12261966        0.71346214        4.20000000        3.60509646
    13.03480938       19.62165804        0.12411743        0.71295720        4.20000000        3.59835009
    13.12415866       19.69788389        0.12561935        0.71245150        4.20000000        3.59162094
    13.21324383       19.77410974        0.12712541        0.71194502        4.20000000        3.58490878
    13.30207034       19.85033560        0.12863564        0.71143774        4.20000000        3.57821338
    13.39064342       19.92656145        0.13015003        0.71092964        4.20000000        3.57153451
    13.47896814       20.00278730        0.13166860        0.71042070        4.20000000        3.56487196
    13.56704939       20.07901315        0.13319135        0.70991091        4.20000000        3.55822552
    13.65489194       20.15523901        0.13471829        0.70940026        4.20000000        3.55159498
    13.74250036       20.23146486        0.13624942        0.70888872        4.20000000        3.54498014
    13.82987911       20.30769071        0.13778476        0.70837628        4.20000000        3.53838081
    13.91703248       20.38391657        0.13932431        0.70786293        4.20000000        3.53179679
    14.00396466       20.46014242        0.14086806        0.70734865        4.20000000        3.52522791
    14.09067969       20.53636827        0.14241603        0.70683343        4.20000000        3.51867399
    14.17718149       20.61259413        0.14396822        0.70631725        4.20000000        3.51213484
    14.26347386       20.68881998        0.14552463        0.70580010        4.20000000        3.50561030
    14.34956051       20.76504583        0.14708525        0.70528197        4.20000000        3.49910020
    14.43544501       20.84127168        0.14865010        0.70476284        4.20000000        3.49260439
    14.52113086       20.91749754        0.15021917        0.70424270        4.20000000        3.48612270
    14.60662142       20.99372339        0.15179247        0.70372155        4.20000000        3.47965497
    14.69191999       21.06994924        0.15336998        0.70319937        4.20000000        3.47320107
    14.77702977       21.14617510        0.15495172        0.70267614        4.20000000        3.46676084
    14.86195386       21.22240095        0.15653769        0.70215186        4.20000000        3.46033415
    14.94669527       21.29862680        0.15812787        0.70162651        4.20000000        3.45392085
    15.03125695       21.37485266        0.15972227        0.70110009        4.20000000        3.44752082
    15.11564176       21.45107851        0.16132089        0.70057258        4.20000000        3.44113391
    15.19985247       21.52730436        0.16292372        0.70004398        4.20000000        3.43476001
    15.28389181       21.60353021        0.16453077        0.69951427        4.20000000        3.42839898
    15.36776240       21.67975607        0.16614202        0.69898345        4.20000000        3.42205071
    15.45146682       21.75598192        0.16775748        0.69845150        4.20000000        3.41571508
    15.53500758       21.83220777        0.16937714        0.69791842        4.20000000        3.40939198
    15.61838710       21.90843363        0.17100099        0.69738420        4.20000000        3.40308128
    15.70160778       21.98465948        0.17262904        0.69684882        4.20000000        3.39678289
    15.78467194       22.06088533        0.17426128        0.69631228        4.20000000        3.39049669
    15.86758183       22.13711119        0.17589770        0.69577458        4.20000000        3.38422259
    15.95033965       22.21333704        0.17753831        0.69523570        4.20000000        3.37796048
    16.03294758       22.28956289        0.17918308        0.69469563        4.20000000        3.37171026
    16.11540770       22.36578874        0.18083203        0.69415437        4.20000000        3.36547183
    16.19772207       22.44201460        0.18248514        0.69361190        4.20000000        3.35924511
    16.27989268       22.51824045        0.18414240        0.69306823        4.20000000        3.35303000
    16.36192150       22.59446630        0.18580382        0.69252334        4.20000000        3.34682641
    16.44381043       22.67069216        0.18746938        0.69197723        4.20000000        3.34063425
    16.52556135       22.74691801        0.18913907        0.69142989        4.20000000        3.33445345
    16.60717605       22.82314386        0.19081290        0.69088131        4.20000000        3.32828391
    16.68865635       22.89936972        0.19249086        0.69033148        4.20000000        3.32212556
    16.77000397       22.97559557        0.19417293        0.68978040        4.20000000        3.31597832
    16.85122060       23.05182142        0.19585911        0.68922806        4.20000000        3.30984211
    16.93230793       23.12804727        0.19754940        0.68867445        4.20000000        3.30371686
    17.01326756       23.20427313        0.19924378        0.68811957        4.20000000        3.29760249
    17.09410110       23.28049898        0.20094224        0.68756341        4.20000000        3.29149893
    17.17481010       23.35672483        0.20264479        0.68700597        4.20000000        3.28540612
    17.25539608       23.43295069        0.20435141        0.68644723        4.20000000        3.27932399
    17.33586053       23.50917654        0.20606209        0.68588720        4.20000000        3.27325247
    17.41620491       23.58540239        0.20777683        0.68532586        4.20000000        3.26719149
    17.49643064       23.66162825        0.20949561        0.68476321        4.20000000        3.26114099
    17.57653913       23.73785410        0.21121844        0.68419924        4.20000000        3.25510092
    17.65653174       23.81407995        0.21294529        0.68363395        4.20000000        3.24907120
    17.73640980       23.89030580        0.21467616        0.68306734        4.20000000        3.24305179
    17.81617463       23.96653166        0.21641105        0.68249939        4.20000000        3.23704263
    17.89582751       24.04275751        0.21814994        0.68193009        4.20000000        3.23104366
    17.97536971       24.11898336        0.21989282        0.68135946        4.20000000        3.22505482
    18.05480245       24.19520922        0.22163969        0.68078747        4.20000000        3.21907607
    18.13412693       24.27143507        0.22339053        0.68021412        4.20000000        3.21310734
    18.21334436       24.34766092        0.22514533        0.67963942        4.20000000        3.20714860
    18.29245587       24.42388678        0.22690410        0.67906334        4.20000000        3.20119979
    18.37146261       24.50011263        0.22866681        0.67848589        4.20000000        3.19526086
    18.45036570       24.57633848        0.23043345        0.67790707        4.20000000        3.18933176
    18.52916623       24.65256433        0.23220403        0.67732686        4.20000000        3.18341246
    18.60786525       24.72879019        0.23397851        0.67674526        4.20000000        3.17750290
    18.68646384       24.80501604        0.23575691        0.67616227        4.20000000        3.17160304
    18.76496301       24.88124189        0.23753920        0.67557788        4.20000000        3.16571283
    18.84336378       24.95746775        0.23932538        0.67499208        4.20000000        3.15983225
    18.92166714       25.03369360        0.24111543        0.67440488        4.20000000        3.15396123
    18.99987405       25.10991945        0.24290935        0.67381626        4.20000000        3.14809975
    19.07798548       25.18614531        0.24470712        0.67322623        4.20000000        3.14224776
    19.15600236       25.26237116        0.24650874        0.67263477        4.20000000        3.13640523
    19.23392560       25.33859701        0.24831419        0.67204188        4.20000000        3.13057212
    19.31175611       25.41482286        0.25012346        0.67144755        4.20000000        3.12474839
    19.38949477       25.49104872        0.25193655        0.67085179        4.20000000        3.11893401
    19.46714245       25.56727457        0.25375344        0.67025459        4.20000000        3.11312894
    19.54470000       25.64350042        0.25557411        0.66965594        4.20000000        3.10733314
    19.62216826       25.71972628        0.25739857        0.66905583        4.20000000        3.10154659
    19.69954804       25.79595213        0.25922679        0.66845427        4.20000000        3.09576924
    19.77684016       25.87217798        0.26105877        0.66785125        4.20000000        3.09000108
    19.85404540       25.94840384        0.26289449        0.66724675        4.20000000        3.08424206
    19.93116454       26.02462969        0.26473395        0.66664079        4.20000000        3.07849215
    20.00819835       26.10085554        0.26657713        0.66603335        4.20000000        3.07275133
    20.08514757       26.17708139        0.26842403        0.66542444        4.20000000        3.06701956
    20.16201295       26.25330725        0.27027462        0.66481403        4.20000000        3.06129682
    20.23879519       26.32953310        0.27212890        0.66420214        4.20000000        3.05558307
    20.31549502       26.40575895        0.27398685        0.66358875        4.20000000        3.04987830
    20.39211313       26.48198481        0.27584847        0.66297386        4.20000000        3.04418246
    20.46865021       26.55821066        0.27771375        0.66235747        4.20000000        3.03849554
    20.54510693       26.63443651        0.27958266        0.66173958        4.20000000        3.03281751
    20.62148395       26.71066237        0.28145521        0.66112017        4.20000000        3.02714835
    20.69778192       26.78688822        0.28333137        0.66049924        4.20000000        3.02148802
    20.77400148       26.86311407        0.28521113        0.65987679        4.20000000        3.01583650
    20.85014326       26.93933992        0.28709449        0.65925282        4.20000000        3.01019377
    20.92620788       27.01556578        0.28898143        0.65862732        4.20000000        3.00455980
    21.00219594       27.09179163        0.29087194        0.65800028        4.20000000        2.99893458
    21.07810803       27.16801748        0.29276601        0.65737170        4.20000000        2.99331807
    21.15394475       27.24424334        0.29466362        0.65674158        4.20000000        2.98771026
    21.22970667       27.32046919        0.29656476        0.65610991        4.20000000        2.98211112
    21.30539435       27.39669504        0.29846943        0.65547669        4.20000000        2.97652063
    21.38100835       27.47292090        0.30037760        0.65484191        4.20000000        2.97093877
