#  Theta paroi en deg Angle Choc en deg       Kp           Inverse Mach       Mach amont       Mach aval
     0.00000000       25.29952875        0.00000000        0.57264957        2.34000000
     1.85077295       25.30146976        0.00610242        0.56993233        2.34000000        2.33989306
     2.22698006       25.30418558        0.00832611        0.56894933        2.34000000        2.33974345
     2.63442838       25.30922583        0.01101618        0.56776512        2.34000000        2.33946585
     3.07518590       25.31814012        0.01423058        0.56635709        2.34000000        2.33897509
     3.53076239       25.33247806        0.01786239        0.56477518        2.34000000        2.33818627
     3.99012702       25.35378928        0.02182332        0.56306047        2.34000000        2.33701502
     4.44891162       25.38362338        0.02606309        0.56123694        2.34000000        2.33537780
     4.90625885       25.42352999        0.03055938        0.55931610        2.34000000        2.33319224
     5.36294736       25.47505873        0.03530792        0.55730162        2.34000000        2.33037758
     5.82047362       25.53975920        0.04031627        0.55519212        2.34000000        2.32685516
     6.20150714       25.60445967        0.04467425        0.55336882        2.34000000        2.32334562
     6.53289893       25.66916014        0.04859996        0.55173586        2.34000000        2.31984881
     6.82914924       25.73386061        0.05221453        0.55024002        2.34000000        2.31636457
     7.09905242       25.79856108        0.05559309        0.54884835        2.34000000        2.31289275
     7.34837717       25.86326156        0.05878580        0.54753885        2.34000000        2.30943319
     7.58112863       25.92796203        0.06182798        0.54629602        2.34000000        2.30598574
     7.80020994       25.99266250        0.06474560        0.54510851        2.34000000        2.30255026
     8.00779809       26.05736297        0.06755830        0.54396770        2.34000000        2.29912660
     8.20557087       26.12206344        0.07028139        0.54286687        2.34000000        2.29571462
     8.39485085       26.18676391        0.07292702        0.54180070        2.34000000        2.29231417
     8.57670058       26.25146438        0.07550504        0.54076487        2.34000000        2.28892512
     8.75198759       26.31616485        0.07802352        0.53975584        2.34000000        2.28554732
     8.92143010       26.38086533        0.08048922        0.53877065        2.34000000        2.28218066
     9.08562997       26.44556580        0.08290779        0.53780680        2.34000000        2.27882499
     9.24509699       26.51026627        0.08528406        0.53686218        2.34000000        2.27548018
     9.40026701       26.57496674        0.08762218        0.53593495        2.34000000        2.27214611
     9.55151582       26.63966721        0.08992573        0.53502355        2.34000000        2.26882264
     9.69916993       26.70436768        0.09219784        0.53412658        2.34000000        2.26550967
     9.84351492       26.76906815        0.09444125        0.53324285        2.34000000        2.26220705
     9.98480211       26.83376862        0.09665837        0.53237128        2.34000000        2.25891467
    10.12325402       26.89846910        0.09885136        0.53151091        2.34000000        2.25563242
    10.25906856       26.96316957        0.10102213        0.53066091        2.34000000        2.25236017
    10.39242269       27.02787004        0.10317239        0.52982050        2.34000000        2.24909781
    10.52347524       27.09257051        0.10530368        0.52898900        2.34000000        2.24584523
    10.65236945       27.15727098        0.10741739        0.52816579        2.34000000        2.24260232
    10.77923489       27.22197145        0.10951479        0.52735031        2.34000000        2.23936896
    10.90418922       27.28667192        0.11159700        0.52654204        2.34000000        2.23614504
    11.02733960       27.35137239        0.11366509        0.52574052        2.34000000        2.23293047
    11.14878403       27.41607287        0.11572000        0.52494531        2.34000000        2.22972513
    11.26861219       27.48077334        0.11776260        0.52415601        2.34000000        2.22652892
    11.38690658       27.54547381        0.11979370        0.52337228        2.34000000        2.22334174
    11.50374312       27.61017428        0.12181404        0.52259376        2.34000000        2.22016349
    11.61919194       27.67487475        0.12382430        0.52182015        2.34000000        2.21699406
    11.73331793       27.73957522        0.12582510        0.52105117        2.34000000        2.21383337
    11.84618126       27.80427569        0.12781704        0.52028653        2.34000000        2.21068131
    11.95783782       27.86897616        0.12980066        0.51952599        2.34000000        2.20753779
    12.06833968       27.93367664        0.13177646        0.51876932        2.34000000        2.20440272
    12.17773534       27.99837711        0.13374492        0.51801630        2.34000000        2.20127600
    12.28607015       28.06307758        0.13570646        0.51726672        2.34000000        2.19815755
    12.39338655       28.12777805        0.13766150        0.51652040        2.34000000        2.19504727
    12.49972428       28.19247852        0.13961043        0.51577715        2.34000000        2.19194508
    12.60512065       28.25717899        0.14155360        0.51503680        2.34000000        2.18885088
    12.70961074       28.32187946        0.14349135        0.51429919        2.34000000        2.18576460
    12.81322756       28.38657993        0.14542400        0.51356417        2.34000000        2.18268615
    12.91600220       28.45128041        0.14735184        0.51283161        2.34000000        2.17961545
    13.01796401       28.51598088        0.14927515        0.51210136        2.34000000        2.17655241
    13.11914074       28.58068135        0.15119420        0.51137329        2.34000000        2.17349695
    13.21955856       28.64538182        0.15310924        0.51064729        2.34000000        2.17044900
    13.31924233       28.71008229        0.15502050        0.50992324        2.34000000        2.16740847
    13.41821557       28.77478276        0.15692820        0.50920103        2.34000000        2.16437529
    13.51650057       28.83948323        0.15883255        0.50848056        2.34000000        2.16134939
    13.61411857       28.90418370        0.16073376        0.50776172        2.34000000        2.15833068
    13.71108969       28.96888418        0.16263201        0.50704443        2.34000000        2.15531909
    13.80743311       29.03358465        0.16452747        0.50632859        2.34000000        2.15231455
    13.90316707       29.09828512        0.16642033        0.50561412        2.34000000        2.14931699
    13.99830898       29.16298559        0.16831073        0.50490093        2.34000000        2.14632634
    14.09287543       29.22768606        0.17019884        0.50418895        2.34000000        2.14334252
    14.18688225       29.29238653        0.17208479        0.50347810        2.34000000        2.14036547
    14.28034458       29.35708700        0.17396872        0.50276831        2.34000000        2.13739512
    14.37327689       29.42178747        0.17585078        0.50205950        2.34000000        2.13443140
    14.46569300       29.48648795        0.17773107        0.50135162        2.34000000        2.13147425
    14.55760617       29.55118842        0.17960973        0.50064459        2.34000000        2.12852360
    14.64902909       29.61588889        0.18148686        0.49993837        2.34000000        2.12557938
    14.73997393       29.68058936        0.18336257        0.49923288        2.34000000        2.12264154
    14.83045235       29.74528983        0.18523697        0.49852807        2.34000000        2.11971001
    14.92047557       29.80999030        0.18711016        0.49782388        2.34000000        2.11678473
    15.01005433       29.87469077        0.18898222        0.49712027        2.34000000        2.11386564
    15.09919896       29.93939124        0.19085326        0.49641718        2.34000000        2.11095267
    15.18791942       30.00409172        0.19272335        0.49571457        2.34000000        2.10804577
    15.27622526       30.06879219        0.19459258        0.49501238        2.34000000        2.10514489
    15.36412568       30.13349266        0.19646102        0.49431057        2.34000000        2.10224995
    15.45162953       30.19819313        0.19832876        0.49360909        2.34000000        2.09936092
    15.53874537       30.26289360        0.20019587        0.49290791        2.34000000        2.09647772
    15.62548141       30.32759407        0.20206240        0.49220697        2.34000000        2.09360031
    15.71184561       30.39229454        0.20392844        0.49150625        2.34000000        2.09072863
    15.79784560       30.45699501        0.20579404        0.49080570        2.34000000        2.08786262
    15.88348878       30.52169549        0.20765926        0.49010528        2.34000000        2.08500224
    15.96878229       30.58639596        0.20952417        0.48940496        2.34000000        2.08214743
    16.05373303       30.65109643        0.21138881        0.48870470        2.34000000        2.07929814
    16.13834766       30.71579690        0.21325325        0.48800446        2.34000000        2.07645432
    16.22263262       30.78049737        0.21511752        0.48730422        2.34000000        2.07361592
    16.30659415       30.84519784        0.21698169        0.48660394        2.34000000        2.07078289
    16.39023827       30.90989831        0.21884580        0.48590359        2.34000000        2.06795518
    16.47357082       30.97459878        0.22070989        0.48520314        2.34000000        2.06513274
    16.55659748       31.03929926        0.22257401        0.48450255        2.34000000        2.06231552
    16.63932369       31.10399973        0.22443820        0.48380181        2.34000000        2.05950349
    16.72175478       31.16870020        0.22630249        0.48310087        2.34000000        2.05669658
    16.80389589       31.23340067        0.22816694        0.48239972        2.34000000        2.05389476
    16.88575201       31.29810114        0.23003156        0.48169832        2.34000000        2.05109799
    16.96732797       31.36280161        0.23189641        0.48099666        2.34000000        2.04830620
    17.04862848       31.42750208        0.23376151        0.48029469        2.34000000        2.04551937
    17.12965809       31.49220255        0.23562690        0.47959241        2.34000000        2.04273745
    17.21042123       31.55690303        0.23749260        0.47888977        2.34000000        2.03996040
    17.29092219       31.62160350        0.23935865        0.47818677        2.34000000        2.03718817
    17.37116515       31.68630397        0.24122508        0.47748338        2.34000000        2.03442073
    17.45115417       31.75100444        0.24309191        0.47677956        2.34000000        2.03165802
    17.53089320       31.81570491        0.24495917        0.47607531        2.34000000        2.02890002
    17.61038607       31.88040538        0.24682689        0.47537060        2.34000000        2.02614668
    17.68963651       31.94510585        0.24869508        0.47466541        2.34000000        2.02339796
    17.76864815       32.00980632        0.25056378        0.47395972        2.34000000        2.02065382
    17.84742452       32.07450680        0.25243301        0.47325350        2.34000000        2.01791423
    17.92596906       32.13920727        0.25430278        0.47254674        2.34000000        2.01517914
    18.00428512       32.20390774        0.25617312        0.47183941        2.34000000        2.01244853
    18.08237595       32.26860821        0.25804404        0.47113150        2.34000000        2.00972234
    18.16024473       32.33330868        0.25991558        0.47042299        2.34000000        2.00700056
    18.23789456       32.39800915        0.26178774        0.46971387        2.34000000        2.00428313
    18.31532844       32.46270962        0.26366054        0.46900410        2.34000000        2.00157003
    18.39254931       32.52741009        0.26553400        0.46829368        2.34000000        1.99886121
    18.46956004       32.59211057        0.26740813        0.46758258        2.34000000        1.99615665
    18.54636343       32.65681104        0.26928295        0.46687080        2.34000000        1.99345632
    18.62296218       32.72151151        0.27115848        0.46615830        2.34000000        1.99076017
    18.69935897       32.78621198        0.27303473        0.46544509        2.34000000        1.98806817
    18.77555638       32.85091245        0.27491171        0.46473113        2.34000000        1.98538030
    18.85155695       32.91561292        0.27678943        0.46401641        2.34000000        1.98269651
    18.92736314       32.98031339        0.27866791        0.46330093        2.34000000        1.98001678
    19.00297737       33.04501386        0.28054715        0.46258465        2.34000000        1.97734107
    19.07840200       33.10971434        0.28242718        0.46186757        2.34000000        1.97466936
    19.15363931       33.17441481        0.28430799        0.46114968        2.34000000        1.97200162
    19.22869156       33.23911528        0.28618961        0.46043095        2.34000000        1.96933780
    19.30356094       33.30381575        0.28807203        0.45971137        2.34000000        1.96667789
    19.37824959       33.36851622        0.28995527        0.45899093        2.34000000        1.96402185
    19.45275962       33.43321669        0.29183934        0.45826962        2.34000000        1.96136966
    19.52709307       33.49791716        0.29372424        0.45754741        2.34000000        1.95872128
    19.60125195       33.56261763        0.29560999        0.45682430        2.34000000        1.95607669
    19.67523820       33.62731811        0.29749658        0.45610028        2.34000000        1.95343586
    19.74905376       33.69201858        0.29938403        0.45537532        2.34000000        1.95079876
    19.82270048       33.75671905        0.30127234        0.45464942        2.34000000        1.94816536
    19.89618022       33.82141952        0.30316152        0.45392256        2.34000000        1.94553564
    19.96949475       33.88611999        0.30505158        0.45319473        2.34000000        1.94290956
    20.04264583       33.95082046        0.30694251        0.45246592        2.34000000        1.94028712
    20.11563518       34.01552093        0.30883433        0.45173611        2.34000000        1.93766826
    20.18846448       34.08022140        0.31072704        0.45100530        2.34000000        1.93505299
    20.26113538       34.14492188        0.31262064        0.45027347        2.34000000        1.93244125
    20.33364948       34.20962235        0.31451513        0.44954060        2.34000000        1.92983304
    20.40600837       34.27432282        0.31641053        0.44880669        2.34000000        1.92722833
    20.47821358       34.33902329        0.31830683        0.44807173        2.34000000        1.92462708
    20.55026664       34.40372376        0.32020404        0.44733569        2.34000000        1.92202929
    20.62216903       34.46842423        0.32210216        0.44659858        2.34000000        1.91943492
    20.69392219       34.53312470        0.32400119        0.44586038        2.34000000        1.91684395
    20.76552755       34.59782517        0.32590114        0.44512108        2.34000000        1.91425636
    20.83698650       34.66252565        0.32780200        0.44438066        2.34000000        1.91167212
    20.90830041       34.72722612        0.32970378        0.44363912        2.34000000        1.90909121
    20.97947062       34.79192659        0.33160648        0.44289645        2.34000000        1.90651362
    21.05049844       34.85662706        0.33351010        0.44215263        2.34000000        1.90393931
    21.12138516       34.92132753        0.33541463        0.44140765        2.34000000        1.90136826
    21.19213204       34.98602800        0.33732010        0.44066151        2.34000000        1.89880046
    21.26274032       35.05072847        0.33922648        0.43991419        2.34000000        1.89623589
    21.33321121       35.11542894        0.34113379        0.43916568        2.34000000        1.89367451
    21.40354590       35.18012942        0.34304202        0.43841597        2.34000000        1.89111632
    21.47374555       35.24482989        0.34495117        0.43766505        2.34000000        1.88856129
    21.54381132       35.30953036        0.34686124        0.43691291        2.34000000        1.88600939
    21.61374433       35.37423083        0.34877224        0.43615955        2.34000000        1.88346062
    21.68354567       35.43893130        0.35068415        0.43540494        2.34000000        1.88091495
    21.75321642       35.50363177        0.35259699        0.43464909        2.34000000        1.87837236
    21.82275766       35.56833224        0.35451074        0.43389198        2.34000000        1.87583283
    21.89217041       35.63303271        0.35642541        0.43313359        2.34000000        1.87329635
    21.96145571       35.69773319        0.35834100        0.43237393        2.34000000        1.87076289
    22.03061455       35.76243366        0.36025750        0.43161298        2.34000000        1.86823243
    22.09964792       35.82713413        0.36217491        0.43085074        2.34000000        1.86570496
    22.16855678       35.89183460        0.36409324        0.43008718        2.34000000        1.86318046
    22.23734209       35.95653507        0.36601247        0.42932231        2.34000000        1.86065891
    22.30600477       36.02123554        0.36793260        0.42855612        2.34000000        1.85814030
    22.37454574       36.08593601        0.36985364        0.42778858        2.34000000        1.85562460
    22.44296589       36.15063648        0.37177558        0.42701970        2.34000000        1.85311180
    22.51126611       36.21533696        0.37369842        0.42624947        2.34000000        1.85060189
    22.57944727       36.28003743        0.37562215        0.42547788        2.34000000        1.84809484
    22.64751020       36.34473790        0.37754677        0.42470491        2.34000000        1.84559063
    22.71545576       36.40943837        0.37947228        0.42393056        2.34000000        1.84308926
    22.78328475       36.47413884        0.38139868        0.42315482        2.34000000        1.84059071
    22.85099799       36.53883931        0.38332596        0.42237768        2.34000000        1.83809496
    22.91859627       36.60353978        0.38525411        0.42159913        2.34000000        1.83560199
    22.98608036       36.66824025        0.38718314        0.42081917        2.34000000        1.83311179
    23.05345103       36.73294073        0.38911305        0.42003778        2.34000000        1.83062434
    23.12070903       36.79764120        0.39104381        0.41925495        2.34000000        1.82813963
    23.18785509       36.86234167        0.39297544        0.41847068        2.34000000        1.82565764
    23.25488994       36.92704214        0.39490793        0.41768496        2.34000000        1.82317837
