#  Theta paroi en deg Angle Choc en deg       Kp           Inverse Mach       Mach amont       Mach aval
     0.00000000       31.02846892        0.00000000        0.48453608        1.94000000
     2.02550839       31.03023807        0.00765995        0.48108571        1.94000000        1.93992271
     2.42488283       31.03271342        0.01038213        0.47986417        1.94000000        1.93981458
     2.86284546       31.03730737        0.01371547        0.47837159        1.94000000        1.93961393
     3.33931555       31.04543234        0.01772414        0.47658120        1.94000000        1.93925917
     3.83287655       31.05850072        0.02226729        0.47455798        1.94000000        1.93868884
     4.33053542       31.07792492        0.02722546        0.47235684        1.94000000        1.93784176
     4.82679516       31.10511735        0.03252628        0.47001131        1.94000000        1.93665717
     5.32014092       31.14149041        0.03813221        0.46753912        1.94000000        1.93507494
     5.81093817       31.18845650        0.04402826        0.46494789        1.94000000        1.93303578
     6.30039585       31.24742803        0.05021401        0.46223875        1.94000000        1.93048149
     6.70607957       31.30639956        0.05556580        0.45990230        1.94000000        1.92793396
     7.05735295       31.36537109        0.06036063        0.45781462        1.94000000        1.92539312
     7.37008695       31.42434263        0.06475281        0.45590675        1.94000000        1.92285893
     7.65391323       31.48331416        0.06883820        0.45413584        1.94000000        1.92033131
     7.91515282       31.54228569        0.07268096        0.45247326        1.94000000        1.91781022
     8.15819601       31.60125722        0.07632636        0.45089880        1.94000000        1.91529559
     8.38622621       31.66022875        0.07980767        0.44939759        1.94000000        1.91278736
     8.60163126       31.71920028        0.08315017        0.44795837        1.94000000        1.91028548
     8.80625180       31.77817181        0.08637354        0.44657235        1.94000000        1.90778990
     9.00153920       31.83714334        0.08949345        0.44523254        1.94000000        1.90530056
     9.18865966       31.89611487        0.09252259        0.44393326        1.94000000        1.90281739
     9.36856551       31.95508640        0.09547142        0.44266986        1.94000000        1.90034036
     9.54204532       32.01405794        0.09834865        0.44143845        1.94000000        1.89786941
     9.70976005       32.07302947        0.10116161        0.44023575        1.94000000        1.89540448
     9.87226955       32.13200100        0.10391658        0.43905895        1.94000000        1.89294552
    10.03005257       32.19097253        0.10661892        0.43790566        1.94000000        1.89049248
    10.18352200       32.24994406        0.10927331        0.43677379        1.94000000        1.88804531
    10.33303654       32.30891559        0.11188380        0.43566152        1.94000000        1.88560396
    10.47891002       32.36788712        0.11445398        0.43456724        1.94000000        1.88316838
    10.62141870       32.42685865        0.11698701        0.43348955        1.94000000        1.88073853
    10.76080709       32.48583018        0.11948567        0.43242718        1.94000000        1.87831434
    10.89729281       32.54480172        0.12195249        0.43137901        1.94000000        1.87589578
    11.03107035       32.60377325        0.12438970        0.43034403        1.94000000        1.87348280
    11.16231440       32.66274478        0.12679932        0.42932134        1.94000000        1.87107534
    11.29118245       32.72171631        0.12918319        0.42831011        1.94000000        1.86867337
    11.41781699       32.78068784        0.13154295        0.42730959        1.94000000        1.86627684
    11.54234746       32.83965937        0.13388011        0.42631911        1.94000000        1.86388570
    11.66489174       32.89863090        0.13619606        0.42533804        1.94000000        1.86149991
    11.78555757       32.95760243        0.13849204        0.42436581        1.94000000        1.85911942
    11.90444371       33.01657396        0.14076921        0.42340189        1.94000000        1.85674419
    12.02164086       33.07554550        0.14302865        0.42244582        1.94000000        1.85437418
    12.13723262       33.13451703        0.14527132        0.42149713        1.94000000        1.85200934
    12.25129613       33.19348856        0.14749813        0.42055541        1.94000000        1.84964964
    12.36390282       33.25246009        0.14970993        0.41962029        1.94000000        1.84729502
    12.47511891       33.31143162        0.15190749        0.41869140        1.94000000        1.84494545
    12.58500593       33.37040315        0.15409154        0.41776842        1.94000000        1.84260089
    12.69362118       33.42937468        0.15626275        0.41685103        1.94000000        1.84026129
    12.80101809       33.48834621        0.15842175        0.41593895        1.94000000        1.83792662
    12.90724657       33.54731774        0.16056912        0.41503190        1.94000000        1.83559684
    13.01235333       33.60628928        0.16270543        0.41412962        1.94000000        1.83327191
    13.11638216       33.66526081        0.16483119        0.41323189        1.94000000        1.83095178
    13.21937413       33.72423234        0.16694687        0.41233846        1.94000000        1.82863643
    13.32136787       33.78320387        0.16905294        0.41144914        1.94000000        1.82632581
    13.42239973       33.84217540        0.17114982        0.41056372        1.94000000        1.82401988
    13.52250396       33.90114693        0.17323791        0.40968201        1.94000000        1.82171862
    13.62171288       33.96011846        0.17531761        0.40880383        1.94000000        1.81942197
    13.72005701       34.01908999        0.17738925        0.40792902        1.94000000        1.81712992
    13.81756526       34.07806152        0.17945320        0.40705741        1.94000000        1.81484241
    13.91426494       34.13703305        0.18150975        0.40618885        1.94000000        1.81255942
    14.01018198       34.19600459        0.18355923        0.40532320        1.94000000        1.81028090
    14.10534096       34.25497612        0.18560192        0.40446031        1.94000000        1.80800683
    14.19976522       34.31394765        0.18763808        0.40360006        1.94000000        1.80573718
    14.29347696       34.37291918        0.18966799        0.40274232        1.94000000        1.80347190
    14.38649729       34.43189071        0.19169188        0.40188697        1.94000000        1.80121096
    14.47884631       34.49086224        0.19370999        0.40103390        1.94000000        1.79895433
    14.57054320       34.54983377        0.19572255        0.40018300        1.94000000        1.79670198
    14.66160622       34.60880530        0.19772976        0.39933416        1.94000000        1.79445388
    14.75205281       34.66777683        0.19973183        0.39848729        1.94000000        1.79220999
    14.84189964       34.72674837        0.20172896        0.39764229        1.94000000        1.78997027
    14.93116266       34.78571990        0.20372132        0.39679907        1.94000000        1.78773471
    15.01985707       34.84469143        0.20570909        0.39595754        1.94000000        1.78550327
    15.10799750       34.90366296        0.20769244        0.39511761        1.94000000        1.78327592
    15.19559790       34.96263449        0.20967153        0.39427922        1.94000000        1.78105262
    15.28267168       35.02160602        0.21164651        0.39344226        1.94000000        1.77883335
    15.36923170       35.08057755        0.21361754        0.39260669        1.94000000        1.77661808
    15.45529026       35.13954908        0.21558475        0.39177241        1.94000000        1.77440677
    15.54085923       35.19852061        0.21754827        0.39093936        1.94000000        1.77219941
    15.62594998       35.25749215        0.21950824        0.39010748        1.94000000        1.76999595
    15.71057344       35.31646368        0.22146477        0.38927670        1.94000000        1.76779638
    15.79474015       35.37543521        0.22341800        0.38844696        1.94000000        1.76560066
    15.87846023       35.43440674        0.22536802        0.38761819        1.94000000        1.76340877
    15.96174343       35.49337827        0.22731496        0.38679035        1.94000000        1.76122067
    16.04459915       35.55234980        0.22925891        0.38596336        1.94000000        1.75903634
    16.12703643       35.61132133        0.23119998        0.38513719        1.94000000        1.75685576
    16.20906402       35.67029286        0.23313826        0.38431177        1.94000000        1.75467890
    16.29069033       35.72926439        0.23507385        0.38348706        1.94000000        1.75250572
    16.37192349       35.78823593        0.23700684        0.38266300        1.94000000        1.75033622
    16.45277136       35.84720746        0.23893731        0.38183956        1.94000000        1.74817034
    16.53324150       35.90617899        0.24086535        0.38101667        1.94000000        1.74600809
    16.61334126       35.96515052        0.24279103        0.38019431        1.94000000        1.74384942
    16.69307772       36.02412205        0.24471444        0.37937241        1.94000000        1.74169431
    16.77245773       36.08309358        0.24663564        0.37855095        1.94000000        1.73954274
    16.85148791       36.14206511        0.24855471        0.37772988        1.94000000        1.73739468
    16.93017468       36.20103664        0.25047172        0.37690916        1.94000000        1.73525011
    17.00852426       36.26000817        0.25238674        0.37608875        1.94000000        1.73310901
    17.08654266       36.31897970        0.25429982        0.37526862        1.94000000        1.73097134
    17.16423570       36.37795124        0.25621103        0.37444872        1.94000000        1.72883710
    17.24160904       36.43692277        0.25812043        0.37362902        1.94000000        1.72670625
    17.31866816       36.49589430        0.26002808        0.37280950        1.94000000        1.72457877
    17.39541837       36.55486583        0.26193403        0.37199010        1.94000000        1.72245463
    17.47186481       36.61383736        0.26383833        0.37117080        1.94000000        1.72033383
    17.54801251       36.67280889        0.26574104        0.37035157        1.94000000        1.71821632
    17.62386630       36.73178042        0.26764221        0.36953238        1.94000000        1.71610210
    17.69943091       36.79075195        0.26954189        0.36871319        1.94000000        1.71399114
    17.77471091       36.84972348        0.27144011        0.36789398        1.94000000        1.71188341
    17.84971075       36.90869502        0.27333693        0.36707471        1.94000000        1.70977890
    17.92443477       36.96766655        0.27523240        0.36625536        1.94000000        1.70767759
    17.99888716       37.02663808        0.27712654        0.36543590        1.94000000        1.70557945
    18.07307201       37.08560961        0.27901941        0.36461631        1.94000000        1.70348446
    18.14699329       37.14458114        0.28091104        0.36379655        1.94000000        1.70139261
    18.22065488       37.20355267        0.28280147        0.36297660        1.94000000        1.69930386
    18.29406053       37.26252420        0.28469073        0.36215643        1.94000000        1.69721821
    18.36721392       37.32149573        0.28657887        0.36133602        1.94000000        1.69513564
    18.44011860       37.38046726        0.28846592        0.36051535        1.94000000        1.69305611
    18.51277806       37.43943880        0.29035190        0.35969439        1.94000000        1.69097962
    18.58519567       37.49841033        0.29223685        0.35887312        1.94000000        1.68890614
    18.65737473       37.55738186        0.29412081        0.35805151        1.94000000        1.68683565
    18.72931845       37.61635339        0.29600380        0.35722955        1.94000000        1.68476815
    18.80102998       37.67532492        0.29788585        0.35640720        1.94000000        1.68270359
    18.87251234       37.73429645        0.29976698        0.35558445        1.94000000        1.68064198
    18.94376853       37.79326798        0.30164724        0.35476129        1.94000000        1.67858329
    19.01480143       37.85223951        0.30352664        0.35393767        1.94000000        1.67652750
    19.08561390       37.91121104        0.30540520        0.35311360        1.94000000        1.67447459
    19.15620867       37.97018257        0.30728296        0.35228904        1.94000000        1.67242455
    19.22658847       38.02915411        0.30915993        0.35146397        1.94000000        1.67037735
    19.29675590       38.08812564        0.31103614        0.35063839        1.94000000        1.66833299
    19.36671355       38.14709717        0.31291162        0.34981226        1.94000000        1.66629144
    19.43646391       38.20606870        0.31478637        0.34898557        1.94000000        1.66425269
    19.50600944       38.26504023        0.31666043        0.34815831        1.94000000        1.66221672
    19.57535253       38.32401176        0.31853381        0.34733044        1.94000000        1.66018351
    19.64449551       38.38298329        0.32040654        0.34650196        1.94000000        1.65815305
    19.71344066       38.44195482        0.32227862        0.34567285        1.94000000        1.65612532
    19.78219023       38.50092635        0.32415009        0.34484309        1.94000000        1.65410030
    19.85074637       38.55989789        0.32602095        0.34401267        1.94000000        1.65207798
    19.91911124       38.61886942        0.32789123        0.34318156        1.94000000        1.65005834
    19.98728691       38.67784095        0.32976094        0.34234975        1.94000000        1.64804137
    20.05527542       38.73681248        0.33163009        0.34151723        1.94000000        1.64602705
    20.12307875       38.79578401        0.33349870        0.34068397        1.94000000        1.64401536
    20.19069885       38.85475554        0.33536680        0.33984997        1.94000000        1.64200630
    20.25813765       38.91372707        0.33723438        0.33901521        1.94000000        1.63999984
    20.32539699       38.97269860        0.33910146        0.33817967        1.94000000        1.63799596
    20.39247870       39.03167013        0.34096807        0.33734333        1.94000000        1.63599467
    20.45938457       39.09064167        0.34283420        0.33650619        1.94000000        1.63399593
    20.52611634       39.14961320        0.34469988        0.33566823        1.94000000        1.63199974
    20.59267572       39.20858473        0.34656511        0.33482942        1.94000000        1.63000608
    20.65906439       39.26755626        0.34842990        0.33398977        1.94000000        1.62801494
    20.72528399       39.32652779        0.35029428        0.33314926        1.94000000        1.62602630
    20.79133612       39.38549932        0.35215824        0.33230786        1.94000000        1.62404016
    20.85722236       39.44447085        0.35402180        0.33146557        1.94000000        1.62205648
    20.92294425       39.50344238        0.35588497        0.33062238        1.94000000        1.62007527
    20.98850328       39.56241391        0.35774775        0.32977827        1.94000000        1.61809651
    21.05390094       39.62138545        0.35961017        0.32893322        1.94000000        1.61612018
    21.11913868       39.68035698        0.36147222        0.32808723        1.94000000        1.61414628
    21.18421791       39.73932851        0.36333391        0.32724028        1.94000000        1.61217478
    21.24914004       39.79830004        0.36519525        0.32639236        1.94000000        1.61020568
    21.31390641       39.85727157        0.36705626        0.32554345        1.94000000        1.60823896
    21.37851836       39.91624310        0.36891693        0.32469355        1.94000000        1.60627461
    21.44297720       39.97521463        0.37077727        0.32384264        1.94000000        1.60431262
    21.50728421       40.03418616        0.37263730        0.32299070        1.94000000        1.60235297
    21.57144066       40.09315769        0.37449702        0.32213774        1.94000000        1.60039566
    21.63544778       40.15212922        0.37635643        0.32128373        1.94000000        1.59844067
    21.69930677       40.21110076        0.37821554        0.32042866        1.94000000        1.59648798
    21.76301881       40.27007229        0.38007436        0.31957252        1.94000000        1.59453759
    21.82658509       40.32904382        0.38193289        0.31871530        1.94000000        1.59258949
    21.89000672       40.38801535        0.38379114        0.31785700        1.94000000        1.59064366
    21.95328485       40.44698688        0.38564911        0.31699758        1.94000000        1.58870009
    22.01642055       40.50595841        0.38750680        0.31613706        1.94000000        1.58675877
    22.07941492       40.56492994        0.38936423        0.31527540        1.94000000        1.58481969
    22.14226899       40.62390147        0.39122139        0.31441261        1.94000000        1.58288284
    22.20498382       40.68287300        0.39307829        0.31354867        1.94000000        1.58094820
    22.26756042       40.74184454        0.39493494        0.31268358        1.94000000        1.57901577
    22.32999979       40.80081607        0.39679133        0.31181731        1.94000000        1.57708553
    22.39230291       40.85978760        0.39864748        0.31094986        1.94000000        1.57515747
    22.45447073       40.91875913        0.40050337        0.31008122        1.94000000        1.57323159
    22.51650421       40.97773066        0.40235903        0.30921138        1.94000000        1.57130787
    22.57840427       41.03670219        0.40421444        0.30834033        1.94000000        1.56938629
    22.64017182       41.09567372        0.40606962        0.30746805        1.94000000        1.56746687
    22.70180775       41.15464525        0.40792455        0.30659454        1.94000000        1.56554957
    22.76331294       41.21361678        0.40977926        0.30571979        1.94000000        1.56363439
    22.82468825       41.27258832        0.41163374        0.30484378        1.94000000        1.56172132
    22.88593453       41.33155985        0.41348798        0.30396652        1.94000000        1.55981035
    22.94705259       41.39053138        0.41534200        0.30308797        1.94000000        1.55790148
    23.00804327       41.44950291        0.41719579        0.30220815        1.94000000        1.55599468
    23.06890736       41.50847444        0.41904936        0.30132703        1.94000000        1.55408996
    23.12964563       41.56744597        0.42090270        0.30044460        1.94000000        1.55218729
    23.19025888       41.62641750        0.42275582        0.29956087        1.94000000        1.55028668
