#  Theta paroi en deg Angle Choc en deg       Kp           Inverse Mach       Mach amont       Mach aval
     0.00000000       65.95728986        0.00000000        0.08675799        1.09500000
     1.95764438       65.95801114        0.01019738        0.08096188        1.09500000        1.09498940
     2.09042908       65.95902034        0.01146211        0.08023976        1.09500000        1.09497457
     2.28942381       65.96089330        0.01347257        0.07909036        1.09500000        1.09494706
     2.55305644       65.96420585        0.01634289        0.07744617        1.09500000        1.09489840
     2.85919956       65.96953384        0.01996234        0.07536747        1.09500000        1.09482014
     3.18774030       65.97745309        0.02417738        0.07293906        1.09500000        1.09470386
     3.52614624       65.98853945        0.02886561        0.07022828        1.09500000        1.09454114
     3.86757963       66.00336876        0.03394204        0.06728132        1.09500000        1.09432359
     4.20849409       66.02251684        0.03934912        0.06412886        1.09500000        1.09404289
     4.54710747       66.04655955        0.04504739        0.06079131        1.09500000        1.09369075
     4.82532863       66.07060226        0.04996983        0.05789536        1.09500000        1.09333896
     5.06372452       66.09464497        0.05435821        0.05530347        1.09500000        1.09298752
     5.27360827       66.11868768        0.05835103        0.05293682        1.09500000        1.09263643
     5.46193014       66.14273040        0.06203617        0.05074539        1.09500000        1.09228569
     5.63329374       66.16677311        0.06547344        0.04869512        1.09500000        1.09193530
     5.79092004       66.19081582        0.06870568        0.04676159        1.09500000        1.09158526
     5.93715880       66.21485853        0.07176478        0.04492666        1.09500000        1.09123557
     6.07378148       66.23890124        0.07467524        0.04317635        1.09500000        1.09088622
     6.20215975       66.26294395        0.07745632        0.04149969        1.09500000        1.09053723
     6.32337930       66.28698666        0.08012351        0.03988785        1.09500000        1.09018859
     6.43831555       66.31102937        0.08268947        0.03833361        1.09500000        1.08984029
     6.54768563       66.33507208        0.08516470        0.03683099        1.09500000        1.08949235
     6.65208498       66.35911479        0.08755802        0.03537496        1.09500000        1.08914475
     6.75201404       66.38315750        0.08987692        0.03396124        1.09500000        1.08879751
     6.84789768       66.40720021        0.09212785        0.03258616        1.09500000        1.08845061
     6.94010004       66.43124292        0.09431635        0.03124656        1.09500000        1.08810406
     7.02893583       66.45528563        0.09644729        0.02993967        1.09500000        1.08775786
     7.11467897       66.47932834        0.09852492        0.02866305        1.09500000        1.08741201
     7.19756958       66.50337105        0.10055301        0.02741456        1.09500000        1.08706651
     7.27781941       66.52741376        0.10253490        0.02619229        1.09500000        1.08672135
     7.35561615       66.55145647        0.10447359        0.02499453        1.09500000        1.08637655
     7.43112716       66.57549918        0.10637175        0.02381976        1.09500000        1.08603209
     7.50450221       66.59954189        0.10823180        0.02266660        1.09500000        1.08568798
     7.57587606       66.62358460        0.11005594        0.02153379        1.09500000        1.08534422
     7.64537030       66.64762731        0.11184615        0.02042021        1.09500000        1.08500081
     7.71309517       66.67167002        0.11360424        0.01932482        1.09500000        1.08465774
     7.77915087       66.69571273        0.11533187        0.01824668        1.09500000        1.08431502
     7.84362883       66.71975544        0.11703055        0.01718491        1.09500000        1.08397266
     7.90661270       66.74379815        0.11870170        0.01613872        1.09500000        1.08363063
     7.96817922       66.76784086        0.12034660        0.01510738        1.09500000        1.08328896
     8.02839899       66.79188357        0.12196644        0.01409020        1.09500000        1.08294763
     8.08733712       66.81592628        0.12356232        0.01308656        1.09500000        1.08260665
     8.14505379       66.83996899        0.12513528        0.01209587        1.09500000        1.08226602
     8.20160479       66.86401170        0.12668626        0.01111759        1.09500000        1.08192574
     8.25704184       66.88805441        0.12821617        0.01015120        1.09500000        1.08158580
     8.31141314       66.91209712        0.12972582        0.00919623        1.09500000        1.08124621
     8.36476352       66.93613983        0.13121600        0.00825225        1.09500000        1.08090697
     8.41713488       66.96018254        0.13268744        0.00731883        1.09500000        1.08056807
     8.46856642       66.98422525        0.13414083        0.00639558        1.09500000        1.08022952
     8.51909480       67.00826796        0.13557680        0.00548214        1.09500000        1.07989132
     8.56875447       67.03231067        0.13699597        0.00457817        1.09500000        1.07955347
     8.61757775       67.05635338        0.13839890        0.00368332        1.09500000        1.07921596
     8.66559509       67.08039609        0.13978614        0.00279731        1.09500000        1.07887880
     8.71283513       67.10443880        0.14115820        0.00191983        1.09500000        1.07854198
     8.75932491       67.12848151        0.14251556        0.00105062        1.09500000        1.07820551
     8.80508999       67.15252422        0.14385867        0.00018941        1.09500000        1.07786939
     8.85015447       67.17656693        0.14518798       -0.00066405        1.09500000        1.07753361
     8.89454122       67.20060964        0.14650389       -0.00150999        1.09500000        1.07719818
     8.93827192       67.22465235        0.14780679       -0.00234863        1.09500000        1.07686310
     8.98136708       67.24869506        0.14909707       -0.00318018        1.09500000        1.07652836
     9.02384621       67.27273777        0.15037507       -0.00400485        1.09500000        1.07619397
     9.06572786       67.29678048        0.15164113       -0.00482283        1.09500000        1.07585993
     9.10702968       67.32082319        0.15289557       -0.00563431        1.09500000        1.07552623
     9.14776843       67.34486590        0.15413871       -0.00643945        1.09500000        1.07519287
     9.18796015       67.36890861        0.15537083       -0.00723842        1.09500000        1.07485987
     9.22762009       67.39295132        0.15659223       -0.00803139        1.09500000        1.07452721
     9.26676283       67.41699403        0.15780316       -0.00881851        1.09500000        1.07419489
     9.30540229       67.44103674        0.15900390       -0.00959993        1.09500000        1.07386292
     9.34355177       67.46507945        0.16019467       -0.01037578        1.09500000        1.07353129
     9.38122401       67.48912216        0.16137573       -0.01114620        1.09500000        1.07320001
     9.41843122       67.51316487        0.16254730       -0.01191131        1.09500000        1.07286908
     9.45518506       67.53720758        0.16370960       -0.01267126        1.09500000        1.07253849
     9.49149675       67.56125029        0.16486283       -0.01342614        1.09500000        1.07220825
     9.52737701       67.58529300        0.16600721       -0.01417608        1.09500000        1.07187835
     9.56283617       67.60933571        0.16714292       -0.01492119        1.09500000        1.07154880
     9.59788413       67.63337842        0.16827015       -0.01566158        1.09500000        1.07121959
     9.63253039       67.65742113        0.16938909       -0.01639733        1.09500000        1.07089073
     9.66678414       67.68146384        0.17049990       -0.01712857        1.09500000        1.07056221
     9.70065416       67.70550655        0.17160275       -0.01785537        1.09500000        1.07023404
     9.73414895       67.72954926        0.17269781       -0.01857783        1.09500000        1.06990621
     9.76727666       67.75359197        0.17378523       -0.01929603        1.09500000        1.06957873
     9.80004516       67.77763468        0.17486517       -0.02001008        1.09500000        1.06925159
     9.83246204       67.80167739        0.17593776       -0.02072003        1.09500000        1.06892479
     9.86453462       67.82572010        0.17700314       -0.02142598        1.09500000        1.06859834
     9.89626997       67.84976281        0.17806146       -0.02212801        1.09500000        1.06827224
     9.92767488       67.87380553        0.17911284       -0.02282618        1.09500000        1.06794648
     9.95875597       67.89784824        0.18015742       -0.02352056        1.09500000        1.06762106
     9.98951959       67.92189095        0.18119531       -0.02421123        1.09500000        1.06729599
    10.01997188       67.94593366        0.18222663       -0.02489826        1.09500000        1.06697127
    10.05011882       67.96997637        0.18325150       -0.02558171        1.09500000        1.06664688
    10.07996614       67.99401908        0.18427003       -0.02626163        1.09500000        1.06632285
    10.10951943       68.01806179        0.18528233       -0.02693810        1.09500000        1.06599915
    10.13878407       68.04210450        0.18628851       -0.02761118        1.09500000        1.06567580
    10.16776530       68.06614721        0.18728866       -0.02828091        1.09500000        1.06535280
    10.19646817       68.09018992        0.18828288       -0.02894736        1.09500000        1.06503013
    10.22489760       68.11423263        0.18927128       -0.02961058        1.09500000        1.06470782
    10.25305834       68.13827534        0.19025394       -0.03027061        1.09500000        1.06438584
    10.28095502       68.16231805        0.19123096       -0.03092753        1.09500000        1.06406421
    10.30859211       68.18636076        0.19220242       -0.03158136        1.09500000        1.06374293
    10.33597397       68.21040347        0.19316841       -0.03223217        1.09500000        1.06342199
    10.36310480       68.23444618        0.19412901       -0.03287999        1.09500000        1.06310139
    10.38998873       68.25848889        0.19508431       -0.03352487        1.09500000        1.06278113
    10.41662971       68.28253160        0.19603438       -0.03416687        1.09500000        1.06246122
    10.44303165       68.30657431        0.19697930       -0.03480601        1.09500000        1.06214165
    10.46919829       68.33061702        0.19791914       -0.03544234        1.09500000        1.06182243
    10.49513329       68.35465973        0.19885397       -0.03607591        1.09500000        1.06150355
    10.52084021       68.37870244        0.19978388       -0.03670674        1.09500000        1.06118501
    10.54632253       68.40274515        0.20070892       -0.03733489        1.09500000        1.06086682
    10.57158360       68.42678786        0.20162916       -0.03796038        1.09500000        1.06054897
    10.59662671       68.45083057        0.20254467       -0.03858326        1.09500000        1.06023146
    10.62145507       68.47487328        0.20345552       -0.03920356        1.09500000        1.05991430
    10.64607177       68.49891599        0.20436176       -0.03982131        1.09500000        1.05959748
    10.67047985       68.52295870        0.20526345       -0.04043656        1.09500000        1.05928100
    10.69468227       68.54700141        0.20616066       -0.04104932        1.09500000        1.05896487
    10.71868190       68.57104412        0.20705344       -0.04165963        1.09500000        1.05864908
    10.74248155       68.59508683        0.20794185       -0.04226754        1.09500000        1.05833363
    10.76608395       68.61912954        0.20882594       -0.04287305        1.09500000        1.05801853
    10.78949179       68.64317225        0.20970577       -0.04347621        1.09500000        1.05770377
    10.81270766       68.66721496        0.21058139       -0.04407705        1.09500000        1.05738935
    10.83573410       68.69125767        0.21145286       -0.04467559        1.09500000        1.05707527
    10.85857360       68.71530038        0.21232021       -0.04527186        1.09500000        1.05676154
    10.88122857       68.73934309        0.21318351       -0.04586589        1.09500000        1.05644815
    10.90370139       68.76338580        0.21404279       -0.04645770        1.09500000        1.05613510
    10.92599435       68.78742851        0.21489811       -0.04704732        1.09500000        1.05582240
    10.94810972       68.81147122        0.21574950       -0.04763478        1.09500000        1.05551004
    10.97004969       68.83551393        0.21659703       -0.04822010        1.09500000        1.05519802
    10.99181643       68.85955664        0.21744072       -0.04880330        1.09500000        1.05488634
    11.01341202       68.88359935        0.21828063       -0.04938441        1.09500000        1.05457501
    11.03483855       68.90764206        0.21911679       -0.04996345        1.09500000        1.05426402
    11.05609801       68.93168477        0.21994924       -0.05054044        1.09500000        1.05395337
    11.07719236       68.95572748        0.22077803       -0.05111541        1.09500000        1.05364306
    11.09812354       68.97977019        0.22160319       -0.05168837        1.09500000        1.05333310
    11.11889341       69.00381290        0.22242477       -0.05225935        1.09500000        1.05302348
    11.13950385       69.02785561        0.22324279       -0.05282837        1.09500000        1.05271420
    11.15995661       69.05189832        0.22405730       -0.05339545        1.09500000        1.05240526
    11.18025351       69.07594103        0.22486834       -0.05396061        1.09500000        1.05209667
    11.20039623       69.09998374        0.22567593       -0.05452387        1.09500000        1.05178842
    11.22038647       69.12402645        0.22648012       -0.05508524        1.09500000        1.05148051
    11.24022590       69.14806916        0.22728093       -0.05564475        1.09500000        1.05117294
    11.25991612       69.17211187        0.22807841       -0.05620241        1.09500000        1.05086572
    11.27945874       69.19615458        0.22887258       -0.05675824        1.09500000        1.05055884
    11.29885530       69.22019729        0.22966347       -0.05731226        1.09500000        1.05025230
    11.31810731       69.24424000        0.23045112       -0.05786449        1.09500000        1.04994610
    11.33721629       69.26828271        0.23123555       -0.05841494        1.09500000        1.04964024
    11.35618370       69.29232542        0.23201681       -0.05896362        1.09500000        1.04933473
    11.37501096       69.31636813        0.23279490       -0.05951057        1.09500000        1.04902956
    11.39369947       69.34041084        0.23356988       -0.06005578        1.09500000        1.04872473
    11.41225063       69.36445355        0.23434176       -0.06059927        1.09500000        1.04842024
    11.43066578       69.38849626        0.23511057       -0.06114107        1.09500000        1.04811609
    11.44894625       69.41253897        0.23587634       -0.06168118        1.09500000        1.04781229
    11.46709333       69.43658168        0.23663910       -0.06221963        1.09500000        1.04750883
    11.48510831       69.46062439        0.23739887       -0.06275641        1.09500000        1.04720571
    11.50299243       69.48466710        0.23815567       -0.06329156        1.09500000        1.04690293
    11.52074691       69.50870981        0.23890955       -0.06382507        1.09500000        1.04660049
    11.53837299       69.53275252        0.23966051       -0.06435697        1.09500000        1.04629840
    11.55587182       69.55679523        0.24040858       -0.06488727        1.09500000        1.04599664
    11.57324457       69.58083794        0.24115379       -0.06541598        1.09500000        1.04569523
    11.59049239       69.60488065        0.24189617       -0.06594312        1.09500000        1.04539416
    11.60761638       69.62892337        0.24263572       -0.06646869        1.09500000        1.04509344
    11.62461765       69.65296608        0.24337249       -0.06699270        1.09500000        1.04479305
    11.64149728       69.67700879        0.24410648       -0.06751518        1.09500000        1.04449301
    11.65825633       69.70105150        0.24483773       -0.06803613        1.09500000        1.04419330
    11.67489584       69.72509421        0.24556625       -0.06855556        1.09500000        1.04389394
    11.69141683       69.74913692        0.24629207       -0.06907349        1.09500000        1.04359492
    11.70782031       69.77317963        0.24701520       -0.06958992        1.09500000        1.04329624
    11.72410725       69.79722234        0.24773566       -0.07010487        1.09500000        1.04299791
    11.74027865       69.82126505        0.24845349       -0.07061835        1.09500000        1.04269991
    11.75633544       69.84530776        0.24916869       -0.07113036        1.09500000        1.04240226
    11.77227858       69.86935047        0.24988128       -0.07164092        1.09500000        1.04210495
    11.78810897       69.89339318        0.25059130       -0.07215004        1.09500000        1.04180798
    11.80382752       69.91743589        0.25129874       -0.07265773        1.09500000        1.04151135
    11.81943512       69.94147860        0.25200364       -0.07316399        1.09500000        1.04121506
    11.83493267       69.96552131        0.25270601       -0.07366884        1.09500000        1.04091912
    11.85032099       69.98956402        0.25340586       -0.07417229        1.09500000        1.04062351
    11.86560095       70.01360673        0.25410323       -0.07467434        1.09500000        1.04032825
    11.88077338       70.03764944        0.25479812       -0.07517501        1.09500000        1.04003333
    11.89583911       70.06169215        0.25549055       -0.07567430        1.09500000        1.03973875
    11.91079893       70.08573486        0.25618053       -0.07617222        1.09500000        1.03944451
    11.92565364       70.10977757        0.25686809       -0.07666879        1.09500000        1.03915061
    11.94040403       70.13382028        0.25755325       -0.07716400        1.09500000        1.03885706
    11.95505084       70.15786299        0.25823601       -0.07765787        1.09500000        1.03856384
    11.96959485       70.18190570        0.25891639       -0.07815041        1.09500000        1.03827097
    11.98403680       70.20594841        0.25959441       -0.07864162        1.09500000        1.03797844
    11.99837742       70.22999112        0.26027009       -0.07913151        1.09500000        1.03768625
    12.01261742       70.25403383        0.26094343       -0.07962009        1.09500000        1.03739440
    12.02675753       70.27807654        0.26161446       -0.08010736        1.09500000        1.03710289
